Phone timestamp;sensor timestamp [ns];timestamp [ms];ecg [uV]
2023-04-13T15:53:59.042;599616043710343143;0.0;9348
2023-04-13T15:53:59.049;599616043718025248;7.682105;9247
2023-04-13T15:53:59.057;599616043725707353;15.36421;9133
2023-04-13T15:53:59.065;599616043733389458;23.046316;9017
2023-04-13T15:53:59.072;599616043741071563;30.72842;8901
2023-04-13T15:53:59.080;599616043748753668;38.410522;8744
2023-04-13T15:53:59.088;599616043756435773;46.092632;8589
2023-04-13T15:53:59.095;599616043764117878;53.774734;8490
2023-04-13T15:53:59.103;599616043771799983;61.45684;8372
2023-04-13T15:53:59.111;599616043779482088;69.13895;8210
2023-04-13T15:53:59.118;599616043787164193;76.821045;8084
2023-04-13T15:53:59.126;599616043794846298;84.50315;7988
2023-04-13T15:53:59.134;599616043802528403;92.185265;7840
2023-04-13T15:53:59.141;599616043810210508;99.86737;7671
2023-04-13T15:53:59.149;599616043817892613;107.54947;7562
2023-04-13T15:53:59.157;599616043825574718;115.231575;7456
2023-04-13T15:53:59.164;599616043833256823;122.91368;7304
2023-04-13T15:53:59.172;599616043840938928;130.59578;7166
2023-04-13T15:53:59.180;599616043848621033;138.2779;7072
2023-04-13T15:53:59.187;599616043856303138;145.96;6965
2023-04-13T15:53:59.195;599616043863985243;153.64209;6818
2023-04-13T15:53:59.203;599616043871667348;161.3242;6680
2023-04-13T15:53:59.211;599616043879349453;169.0063;6574
2023-04-13T15:53:59.218;599616043887031558;176.68842;6460
2023-04-13T15:53:59.226;599616043894713663;184.37053;6351
2023-04-13T15:53:59.234;599616043902395768;192.05263;6255
2023-04-13T15:53:59.241;599616043910077873;199.73474;6143
2023-04-13T15:53:59.249;599616043917759978;207.41684;6020
2023-04-13T15:53:59.257;599616043925442083;215.09894;5907
2023-04-13T15:53:59.264;599616043933124188;222.78104;5805
2023-04-13T15:53:59.272;599616043940806293;230.46315;5704
2023-04-13T15:53:59.280;599616043948488398;238.14525;5605
2023-04-13T15:53:59.287;599616043956170503;245.82736;5508
2023-04-13T15:53:59.295;599616043963852608;253.50948;5409
2023-04-13T15:53:59.303;599616043971534713;261.19156;5305
2023-04-13T15:53:59.310;599616043979216818;268.87366;5227
2023-04-13T15:53:59.318;599616043986898923;276.5558;5184
2023-04-13T15:53:59.326;599616043994581028;284.23788;5092
2023-04-13T15:53:59.333;599616044002263133;291.92;4974
2023-04-13T15:53:59.341;599616044009945238;299.60208;4894
2023-04-13T15:53:59.349;599616044017627343;307.28418;4814
2023-04-13T15:53:59.356;599616044025309448;314.9663;4713
2023-04-13T15:53:59.364;599616044032991553;322.6484;4623
2023-04-13T15:53:59.372;599616044040673658;330.33054;4541
2023-04-13T15:53:59.380;599616044048355763;338.0126;4456
2023-04-13T15:53:59.387;599616044056037868;345.69473;4384
2023-04-13T15:53:59.395;599616044063719973;353.37683;4311
2023-04-13T15:53:59.403;599616044071402078;361.05893;4234
2023-04-13T15:53:59.410;599616044079084183;368.74106;4164
2023-04-13T15:53:59.418;599616044086766288;376.42313;4094
2023-04-13T15:53:59.426;599616044094448393;384.10526;4021
2023-04-13T15:53:59.433;599616044102130498;391.78735;3930
2023-04-13T15:53:59.441;599616044109812603;399.46948;3777
2023-04-13T15:53:59.449;599616044117494708;407.15155;3654
2023-04-13T15:53:59.456;599616044125176813;414.83368;3772
2023-04-13T15:53:59.464;599616044132858918;422.51578;4166
2023-04-13T15:53:59.472;599616044140541023;430.19788;4623
2023-04-13T15:53:59.479;599616044148223128;437.88;4722
2023-04-13T15:53:59.487;599616044155905233;445.56207;4169
2023-04-13T15:53:59.495;599616044163587338;453.2442;3420
2023-04-13T15:53:59.502;599616044171269443;460.9263;3161
2023-04-13T15:53:59.510;599616044178951548;468.60843;3241
2023-04-13T15:53:59.518;599616044186633653;476.2905;3217
2023-04-13T15:53:59.525;599616044194315758;483.9726;3139
2023-04-13T15:53:59.533;599616044201997863;491.65472;3120
2023-04-13T15:53:59.541;599616044209679968;499.33682;3074
2023-04-13T15:53:59.549;599616044217362073;507.01895;3001
2023-04-13T15:53:59.556;599616044225044178;514.70105;2968
2023-04-13T15:53:59.564;599616044232726283;522.3831;2946
2023-04-13T15:53:59.572;599616044240408388;530.06525;2883
2023-04-13T15:53:59.579;599616044248090493;537.7473;2818
2023-04-13T15:53:59.587;599616044255772598;545.42944;2791
2023-04-13T15:53:59.595;599616044263454703;553.1116;2762
2023-04-13T15:53:59.602;599616044271151872;560.8087;2709
2023-04-13T15:53:59.610;599616044278833768;568.4906;2663
2023-04-13T15:53:59.618;599616044286515664;576.17255;2634
2023-04-13T15:53:59.625;599616044294197560;583.8544;2598
2023-04-13T15:53:59.633;599616044301879456;591.5363;2557
2023-04-13T15:53:59.641;599616044309561352;599.21826;2516
2023-04-13T15:53:59.648;599616044317243248;606.9001;2477
2023-04-13T15:53:59.656;599616044324925144;614.58203;2445
2023-04-13T15:53:59.664;599616044332607040;622.26385;2416
2023-04-13T15:53:59.671;599616044340288936;629.9458;2390
2023-04-13T15:53:59.679;599616044347970832;637.6277;2366
2023-04-13T15:53:59.687;599616044355652728;645.3096;2337
2023-04-13T15:53:59.694;599616044363334624;652.9915;2293
2023-04-13T15:53:59.702;599616044371016520;660.6734;2250
2023-04-13T15:53:59.710;599616044378698416;668.3553;2218
2023-04-13T15:53:59.718;599616044386380312;676.0372;2187
2023-04-13T15:53:59.725;599616044394062208;683.71906;2141
2023-04-13T15:53:59.733;599616044401744104;691.40094;2090
2023-04-13T15:53:59.741;599616044409426000;699.0829;2044
2023-04-13T15:53:59.748;599616044417107896;706.7647;1994
2023-04-13T15:53:59.756;599616044424789792;714.44666;1938
2023-04-13T15:53:59.764;599616044432471688;722.1286;1882
2023-04-13T15:53:59.771;599616044440153584;729.8104;1839
2023-04-13T15:53:59.779;599616044447835480;737.4924;1807
2023-04-13T15:53:59.787;599616044455517376;745.1742;1769
2023-04-13T15:53:59.794;599616044463199272;752.85614;1725
2023-04-13T15:53:59.802;599616044470881168;760.538;1689
2023-04-13T15:53:59.810;599616044478563064;768.2199;1660
2023-04-13T15:53:59.817;599616044486244960;775.9018;1631
2023-04-13T15:53:59.825;599616044493926856;783.58374;1604
2023-04-13T15:53:59.833;599616044501608752;791.2656;1585
2023-04-13T15:53:59.840;599616044509290648;798.9475;1563
2023-04-13T15:53:59.848;599616044516972544;806.6294;1539
2023-04-13T15:53:59.856;599616044524654440;814.3113;1515
2023-04-13T15:53:59.863;599616044532336336;821.9932;1488
2023-04-13T15:53:59.871;599616044540018232;829.67505;1462
2023-04-13T15:53:59.879;599616044547700128;837.357;1438
2023-04-13T15:53:59.887;599616044555382024;845.03894;1401
2023-04-13T15:53:59.894;599616044563063920;852.72076;1365
2023-04-13T15:53:59.902;599616044570745816;860.4027;1339
2023-04-13T15:53:59.910;599616044578427712;868.08453;1322
2023-04-13T15:53:59.917;599616044586109608;875.7665;1305
2023-04-13T15:53:59.925;599616044593791504;883.44836;1283
2023-04-13T15:53:59.933;599616044601473400;891.13025;1261
2023-04-13T15:53:59.940;599616044609155296;898.81213;1244
2023-04-13T15:53:59.948;599616044616837192;906.4941;1232
2023-04-13T15:53:59.956;599616044624519088;914.17596;1206
2023-04-13T15:53:59.963;599616044632200984;921.85785;1169
2023-04-13T15:53:59.971;599616044639882880;929.53973;1152
2023-04-13T15:53:59.979;599616044647564776;937.2216;1148
2023-04-13T15:53:59.986;599616044655246672;944.90356;1128
2023-04-13T15:53:59.994;599616044662928568;952.5854;1099
2023-04-13T15:54:00.002;599616044670610464;960.26733;1082
2023-04-13T15:54:00.009;599616044678292360;967.9492;1068
2023-04-13T15:54:00.017;599616044685974256;975.6311;1048
2023-04-13T15:54:00.025;599616044693656152;983.31305;1036
2023-04-13T15:54:00.032;599616044701338048;990.9949;1024
2023-04-13T15:54:00.040;599616044709019944;998.6768;1003
2023-04-13T15:54:00.048;599616044716701840;1006.3587;976
2023-04-13T15:54:00.056;599616044724383736;1014.0406;952
2023-04-13T15:54:00.063;599616044732065632;1021.7225;935
2023-04-13T15:54:00.071;599616044739747528;1029.4044;928
2023-04-13T15:54:00.079;599616044747429424;1037.0863;913
2023-04-13T15:54:00.086;599616044755111320;1044.7682;891
2023-04-13T15:54:00.094;599616044762793216;1052.4501;874
2023-04-13T15:54:00.102;599616044770475112;1060.132;862
2023-04-13T15:54:00.109;599616044778157008;1067.8138;848
2023-04-13T15:54:00.117;599616044785838904;1075.4958;831
2023-04-13T15:54:00.125;599616044793520800;1083.1776;819
2023-04-13T15:54:00.132;599616044801202696;1090.8595;802
2023-04-13T15:54:00.140;599616044808884592;1098.5414;775
2023-04-13T15:54:00.148;599616044816566488;1106.2234;754
2023-04-13T15:54:00.155;599616044824248384;1113.9053;751
2023-04-13T15:54:00.163;599616044831920287;1121.5771;758
2023-04-13T15:54:00.171;599616044839602322;1129.2592;756
2023-04-13T15:54:00.178;599616044847284357;1136.9412;746
2023-04-13T15:54:00.186;599616044854966392;1144.6233;737
2023-04-13T15:54:00.194;599616044862648427;1152.3053;720
2023-04-13T15:54:00.201;599616044870330462;1159.9873;700
2023-04-13T15:54:00.209;599616044878012497;1167.6694;681
2023-04-13T15:54:00.217;599616044885694532;1175.3514;659
2023-04-13T15:54:00.225;599616044893376567;1183.0334;628
2023-04-13T15:54:00.232;599616044901058602;1190.7156;601
2023-04-13T15:54:00.240;599616044908740637;1198.3975;594
2023-04-13T15:54:00.248;599616044916422672;1206.0795;589
2023-04-13T15:54:00.255;599616044924104707;1213.7616;584
2023-04-13T15:54:00.263;599616044931786742;1221.4436;577
2023-04-13T15:54:00.271;599616044939468777;1229.1256;565
2023-04-13T15:54:00.278;599616044947150812;1236.8077;553
2023-04-13T15:54:00.286;599616044954832847;1244.4897;536
2023-04-13T15:54:00.294;599616044962514882;1252.1718;497
2023-04-13T15:54:00.301;599616044970196917;1259.8539;401
2023-04-13T15:54:00.309;599616044977878952;1267.5359;352
2023-04-13T15:54:00.317;599616044985560987;1275.2178;560
2023-04-13T15:54:00.324;599616044993243022;1282.8998;1027
2023-04-13T15:54:00.332;599616045000925057;1290.5819;1493
2023-04-13T15:54:00.340;599616045008607092;1298.2639;1544
2023-04-13T15:54:00.347;599616045016289127;1305.946;983
2023-04-13T15:54:00.355;599616045023971162;1313.628;343
2023-04-13T15:54:00.363;599616045031653197;1321.31;198
2023-04-13T15:54:00.370;599616045039335232;1328.9922;328
2023-04-13T15:54:00.378;599616045047017267;1336.6742;340
2023-04-13T15:54:00.386;599616045054699302;1344.3561;321
2023-04-13T15:54:00.394;599616045062381337;1352.0381;350
2023-04-13T15:54:00.401;599616045070063372;1359.7202;338
2023-04-13T15:54:00.409;599616045077745407;1367.4022;309
2023-04-13T15:54:00.417;599616045085427442;1375.0842;319
2023-04-13T15:54:00.424;599616045093109477;1382.7664;331
2023-04-13T15:54:00.432;599616045100791512;1390.4484;326
2023-04-13T15:54:00.440;599616045108473547;1398.1304;319
2023-04-13T15:54:00.447;599616045116155582;1405.8125;314
2023-04-13T15:54:00.455;599616045123837617;1413.4945;306
2023-04-13T15:54:00.463;599616045131519652;1421.1764;306
2023-04-13T15:54:00.470;599616045139201687;1428.8585;306
2023-04-13T15:54:00.478;599616045146883722;1436.5405;314
2023-04-13T15:54:00.486;599616045154565757;1444.2225;316
2023-04-13T15:54:00.493;599616045162247792;1451.9047;306
2023-04-13T15:54:00.501;599616045169929827;1459.5867;304
2023-04-13T15:54:00.509;599616045177611862;1467.2687;309
2023-04-13T15:54:00.516;599616045185293897;1474.9508;316
2023-04-13T15:54:00.524;599616045192975932;1482.6328;326
2023-04-13T15:54:00.532;599616045200657967;1490.3148;331
2023-04-13T15:54:00.539;599616045208340002;1497.9968;323
2023-04-13T15:54:00.547;599616045216022037;1505.6788;321
2023-04-13T15:54:00.555;599616045223704072;1513.3608;323
2023-04-13T15:54:00.563;599616045231386107;1521.043;316
2023-04-13T15:54:00.570;599616045239068142;1528.725;306
2023-04-13T15:54:00.578;599616045246750177;1536.407;304
2023-04-13T15:54:00.586;599616045254432212;1544.0891;294
2023-04-13T15:54:00.593;599616045262114247;1551.7711;265
2023-04-13T15:54:00.601;599616045269796282;1559.4531;229
2023-04-13T15:54:00.609;599616045277478317;1567.1353;195
2023-04-13T15:54:00.616;599616045285160352;1574.8171;171
2023-04-13T15:54:00.624;599616045292842387;1582.4991;147
2023-04-13T15:54:00.632;599616045300524422;1590.1813;125
2023-04-13T15:54:00.639;599616045308206457;1597.8633;106
2023-04-13T15:54:00.647;599616045315888492;1605.5453;84
2023-04-13T15:54:00.655;599616045323570527;1613.2274;70
2023-04-13T15:54:00.662;599616045331252562;1620.9094;72
2023-04-13T15:54:00.670;599616045338934597;1628.5914;72
2023-04-13T15:54:00.678;599616045346616632;1636.2736;65
2023-04-13T15:54:00.685;599616045354298667;1643.9556;65
2023-04-13T15:54:00.693;599616045361980702;1651.6375;65
2023-04-13T15:54:00.701;599616045369662737;1659.3196;53
2023-04-13T15:54:00.709;599616045377344772;1667.0016;45
2023-04-13T15:54:00.716;599616045385026807;1674.6836;48
2023-04-13T15:54:00.724;599616045392708882;1682.3657;33
2023-04-13T15:54:00.732;599616045400390917;1690.0477;16
2023-04-13T15:54:00.739;599616045408072952;1697.7297;26
2023-04-13T15:54:00.747;599616045415754987;1705.4119;29
2023-04-13T15:54:00.755;599616045423437022;1713.0939;16
2023-04-13T15:54:00.762;599616045431119057;1720.7759;21
2023-04-13T15:54:00.770;599616045438801092;1728.458;29
2023-04-13T15:54:00.778;599616045446483127;1736.14;14
2023-04-13T15:54:00.785;599616045454165162;1743.822;0
2023-04-13T15:54:00.793;599616045461847197;1751.504;9
2023-04-13T15:54:00.801;599616045469529232;1759.186;9
2023-04-13T15:54:00.808;599616045477211267;1766.868;-14
2023-04-13T15:54:00.816;599616045484893302;1774.5502;-24
2023-04-13T15:54:00.824;599616045492575337;1782.2322;-12
2023-04-13T15:54:00.831;599616045500257372;1789.9142;-12
2023-04-13T15:54:00.839;599616045507939407;1797.5963;-16
2023-04-13T15:54:00.847;599616045515621442;1805.2783;-16
2023-04-13T15:54:00.854;599616045523303477;1812.9603;-16
2023-04-13T15:54:00.862;599616045530985512;1820.6425;-31
2023-04-13T15:54:00.870;599616045538667547;1828.3243;-36
2023-04-13T15:54:00.878;599616045546349582;1836.0063;-26
2023-04-13T15:54:00.885;599616045554031617;1843.6885;-19
2023-04-13T15:54:00.893;599616045561713652;1851.3705;-26
2023-04-13T15:54:00.901;599616045569395687;1859.0525;-41
2023-04-13T15:54:00.908;599616045577077722;1866.7346;-48
2023-04-13T15:54:00.916;599616045584759757;1874.4166;-43
2023-04-13T15:54:00.924;599616045592441792;1882.0986;-48
2023-04-13T15:54:00.931;599616045600123827;1889.7808;-60
2023-04-13T15:54:00.939;599616045607805862;1897.4626;-67
2023-04-13T15:54:00.947;599616045615487897;1905.1447;-79
2023-04-13T15:54:00.954;599616045623169932;1912.8268;-89
2023-04-13T15:54:00.962;599616045630851967;1920.5088;-91
2023-04-13T15:54:00.970;599616045638534002;1928.1908;-87
2023-04-13T15:54:00.977;599616045646216037;1935.8729;-82
2023-04-13T15:54:00.985;599616045653898072;1943.5549;-79
2023-04-13T15:54:00.993;599616045661580107;1951.2369;-89
2023-04-13T15:54:01.000;599616045669262142;1958.9191;-89
2023-04-13T15:54:01.008;599616045676944177;1966.6011;-70
2023-04-13T15:54:01.016;599616045684626212;1974.283;-53
2023-04-13T15:54:01.023;599616045692308247;1981.9651;-55
2023-04-13T15:54:01.031;599616045699990282;1989.6471;-67
2023-04-13T15:54:01.039;599616045707672317;1997.3291;-82
2023-04-13T15:54:01.047;599616045715354352;2005.0112;-111
2023-04-13T15:54:01.054;599616045723036387;2012.6932;-132
2023-04-13T15:54:01.062;599616045730718422;2020.3752;-125
2023-04-13T15:54:01.070;599616045738400457;2028.0574;-123
2023-04-13T15:54:01.077;599616045746082492;2035.7394;-135
2023-04-13T15:54:01.085;599616045753764527;2043.4214;-137
2023-04-13T15:54:01.093;599616045761446562;2051.1033;-130
2023-04-13T15:54:01.100;599616045769128597;2058.7854;-135
2023-04-13T15:54:01.108;599616045776810632;2066.4675;-140
2023-04-13T15:54:01.116;599616045784492667;2074.1494;-142
2023-04-13T15:54:01.123;599616045792174702;2081.8315;-157
2023-04-13T15:54:01.131;599616045799856737;2089.5137;-227
2023-04-13T15:54:01.139;599616045807538772;2097.1956;-316
2023-04-13T15:54:01.146;599616045815220807;2104.8777;-232
2023-04-13T15:54:01.154;599616045822902842;2112.5598;164
2023-04-13T15:54:01.162;599616045830584877;2120.2417;722
2023-04-13T15:54:01.169;599616045838266912;2127.9238;1063
2023-04-13T15:54:01.177;599616045845948947;2135.6057;771
2023-04-13T15:54:01.185;599616045853630982;2143.2878;7
2023-04-13T15:54:01.192;599616045861313017;2150.97;-427
2023-04-13T15:54:01.200;599616045868995052;2158.6519;-321
2023-04-13T15:54:01.208;599616045876677087;2166.334;-227
2023-04-13T15:54:01.216;599616045884359122;2174.016;-265
2023-04-13T15:54:01.223;599616045892041157;2181.698;-232
2023-04-13T15:54:01.231;599616045899723192;2189.3801;-190
2023-04-13T15:54:01.239;599616045907405227;2197.0623;-207
2023-04-13T15:54:01.246;599616045915087262;2204.7441;-207
2023-04-13T15:54:01.254;599616045922769297;2212.4263;-190
2023-04-13T15:54:01.262;599616045930451332;2220.1084;-193
2023-04-13T15:54:01.269;599616045938133367;2227.7903;-195
2023-04-13T15:54:01.277;599616045945815402;2235.4724;-176
2023-04-13T15:54:01.285;599616045953497477;2243.1545;-169
2023-04-13T15:54:01.292;599616045961179512;2250.8364;-178
2023-04-13T15:54:01.300;599616045968861547;2258.5186;-174
2023-04-13T15:54:01.308;599616045976543582;2266.2004;-164
2023-04-13T15:54:01.315;599616045984225617;2273.8823;-166
2023-04-13T15:54:01.323;599616045991907652;2281.5645;-154
2023-04-13T15:54:01.331;599616045999589687;2289.2466;-132
2023-04-13T15:54:01.338;599616046007271722;2296.9285;-128
2023-04-13T15:54:01.346;599616046014953757;2304.6106;-123
2023-04-13T15:54:01.354;599616046022635792;2312.2927;-111
2023-04-13T15:54:01.361;599616046030317827;2319.9746;-103
2023-04-13T15:54:01.369;599616046037999862;2327.6567;-96
2023-04-13T15:54:01.377;599616046045681897;2335.3389;-77
2023-04-13T15:54:01.385;599616046053363932;2343.0208;-58
2023-04-13T15:54:01.392;599616046061045967;2350.703;-60
2023-04-13T15:54:01.400;599616046068728002;2358.385;-79
2023-04-13T15:54:01.408;599616046076410037;2366.067;-94
2023-04-13T15:54:01.415;599616046084092072;2373.749;-99
2023-04-13T15:54:01.423;599616046091774107;2381.4312;-118
2023-04-13T15:54:01.431;599616046099456142;2389.113;-147
2023-04-13T15:54:01.438;599616046107138177;2396.7952;-171
2023-04-13T15:54:01.446;599616046114820212;2404.4773;-193
2023-04-13T15:54:01.454;599616046122502247;2412.159;-219
2023-04-13T15:54:01.461;599616046130184282;2419.841;-251
2023-04-13T15:54:01.469;599616046137866317;2427.5232;-270
2023-04-13T15:54:01.477;599616046145548352;2435.205;-263
2023-04-13T15:54:01.484;599616046153230387;2442.8872;-268
2023-04-13T15:54:01.492;599616046160912422;2450.5693;-280
2023-04-13T15:54:01.500;599616046168594457;2458.2512;-273
2023-04-13T15:54:01.507;599616046176276492;2465.9333;-268
2023-04-13T15:54:01.515;599616046183958527;2473.6155;-282
2023-04-13T15:54:01.523;599616046191640562;2481.2974;-297
2023-04-13T15:54:01.530;599616046199322597;2488.9795;-292
2023-04-13T15:54:01.538;599616046207004632;2496.6616;-277
2023-04-13T15:54:01.546;599616046214686667;2504.3435;-273
2023-04-13T15:54:01.554;599616046222368702;2512.0256;-273
2023-04-13T15:54:01.561;599616046230050737;2519.7078;-270
2023-04-13T15:54:01.569;599616046237732772;2527.3896;-268
2023-04-13T15:54:01.577;599616046245414807;2535.0718;-253
2023-04-13T15:54:01.584;599616046253096842;2542.754;-246
2023-04-13T15:54:01.592;599616046260778877;2550.4358;-256
2023-04-13T15:54:01.600;599616046268460912;2558.118;-258
2023-04-13T15:54:01.607;599616046276142947;2565.7996;-248
2023-04-13T15:54:01.615;599616046283824982;2573.4817;-241
2023-04-13T15:54:01.623;599616046291507017;2581.1638;-244
2023-04-13T15:54:01.630;599616046299189052;2588.8457;-244
2023-04-13T15:54:01.638;599616046306871087;2596.5278;-236
2023-04-13T15:54:01.646;599616046314553122;2604.21;-234
2023-04-13T15:54:01.653;599616046322235157;2611.892;-248
2023-04-13T15:54:01.661;599616046329917192;2619.574;-261
2023-04-13T15:54:01.669;599616046337599227;2627.256;-256
2023-04-13T15:54:01.676;599616046345281262;2634.9382;-246
2023-04-13T15:54:01.684;599616046352963297;2642.62;-248
2023-04-13T15:54:01.692;599616046360645332;2650.3022;-253
2023-04-13T15:54:01.699;599616046368327367;2657.9844;-251
2023-04-13T15:54:01.707;599616046376009402;2665.6663;-248
2023-04-13T15:54:01.715;599616046383691437;2673.3484;-244
2023-04-13T15:54:01.723;599616046391373472;2681.0305;-241
2023-04-13T15:54:01.730;599616046399055507;2688.7124;-251
2023-04-13T15:54:01.738;599616046406737542;2696.3945;-256
2023-04-13T15:54:01.746;599616046414419577;2704.0767;-251
2023-04-13T15:54:01.753;599616046422101612;2711.7585;-251
2023-04-13T15:54:01.761;599616046429783647;2719.4404;-251
2023-04-13T15:54:01.769;599616046437465682;2727.1223;-244
2023-04-13T15:54:01.776;599616046445147717;2734.8044;-246
2023-04-13T15:54:01.784;599616046452829752;2742.4866;-258
2023-04-13T15:54:01.792;599616046460511787;2750.1685;-244
2023-04-13T15:54:01.799;599616046468193822;2757.8506;-212
2023-04-13T15:54:01.807;599616046475875857;2765.5327;-215
2023-04-13T15:54:01.815;599616046483557892;2773.2146;-222
2023-04-13T15:54:01.822;599616046491239927;2780.8967;-222
2023-04-13T15:54:01.830;599616046498921962;2788.5789;-232
2023-04-13T15:54:01.838;599616046506603997;2796.2607;-241
2023-04-13T15:54:01.845;599616046514286072;2803.9429;-234
2023-04-13T15:54:01.853;599616046521968107;2811.625;-239
2023-04-13T15:54:01.861;599616046529650142;2819.3071;-246
2023-04-13T15:54:01.868;599616046537332177;2826.989;-236
2023-04-13T15:54:01.876;599616046545014212;2834.6711;-232
2023-04-13T15:54:01.884;599616046552696247;2842.3533;-241
2023-04-13T15:54:01.892;599616046560378282;2850.0352;-248
2023-04-13T15:54:01.899;599616046568060317;2857.7173;-248
2023-04-13T15:54:01.907;599616046575742352;2865.3994;-268
2023-04-13T15:54:01.915;599616046583424387;2873.0813;-328
2023-04-13T15:54:01.922;599616046591106422;2880.7634;-427
2023-04-13T15:54:01.930;599616046598788457;2888.4456;-413
2023-04-13T15:54:01.938;599616046606470492;2896.1272;-99
2023-04-13T15:54:01.945;599616046614152527;2903.8093;454
2023-04-13T15:54:01.953;599616046621834562;2911.4912;954
2023-04-13T15:54:01.961;599616046629516597;2919.1733;920
2023-04-13T15:54:01.968;599616046637198632;2926.8555;212
2023-04-13T15:54:01.976;599616046644880667;2934.5374;-454
2023-04-13T15:54:01.984;599616046652562702;2942.2195;-502
2023-04-13T15:54:01.991;599616046660244737;2949.9016;-338
2023-04-13T15:54:01.999;599616046667926772;2957.5835;-350
2023-04-13T15:54:02.007;599616046675608807;2965.2656;-357
2023-04-13T15:54:02.014;599616046683290842;2972.9478;-309
2023-04-13T15:54:02.022;599616046690972877;2980.6296;-309
2023-04-13T15:54:02.030;599616046698654912;2988.3118;-319
2023-04-13T15:54:02.037;599616046706336947;2995.994;-306
2023-04-13T15:54:02.045;599616046714018982;3003.676;-302
2023-04-13T15:54:02.053;599616046721701017;3011.358;-294
2023-04-13T15:54:02.061;599616046729383052;3019.04;-285
2023-04-13T15:54:02.068;599616046737065087;3026.7222;-282
2023-04-13T15:54:02.076;599616046744747122;3034.404;-282
2023-04-13T15:54:02.084;599616046752429157;3042.086;-277
2023-04-13T15:54:02.091;599616046760111192;3049.7678;-273
2023-04-13T15:54:02.099;599616046767793227;3057.45;-268
2023-04-13T15:54:02.107;599616046775475262;3065.132;-261
2023-04-13T15:54:02.114;599616046783157297;3072.814;-251
2023-04-13T15:54:02.122;599616046790839332;3080.496;-239
2023-04-13T15:54:02.130;599616046798521367;3088.1782;-229
2023-04-13T15:54:02.137;599616046806203402;3095.86;-210
2023-04-13T15:54:02.145;599616046813885437;3103.5422;-195
2023-04-13T15:54:02.153;599616046821567472;3111.2244;-195
2023-04-13T15:54:02.160;599616046829249507;3118.9062;-193
2023-04-13T15:54:02.168;599616046836931542;3126.5884;-188
2023-04-13T15:54:02.176;599616046844613577;3134.2705;-186
2023-04-13T15:54:02.183;599616046852295612;3141.9524;-183
2023-04-13T15:54:02.191;599616046859977647;3149.6345;-183
2023-04-13T15:54:02.199;599616046867659682;3157.3167;-193
2023-04-13T15:54:02.206;599616046875341717;3164.9985;-207
2023-04-13T15:54:02.214;599616046883023752;3172.6807;-219
2023-04-13T15:54:02.222;599616046890705787;3180.3628;-239
2023-04-13T15:54:02.230;599616046898387822;3188.045;-280
2023-04-13T15:54:02.237;599616046906069857;3195.7266;-306
2023-04-13T15:54:02.245;599616046913751892;3203.4087;-306
2023-04-13T15:54:02.253;599616046921433927;3211.0906;-316
2023-04-13T15:54:02.260;599616046929115962;3218.7727;-333
2023-04-13T15:54:02.268;599616046936797997;3226.4548;-338
2023-04-13T15:54:02.276;599616046944480032;3234.1367;-340
2023-04-13T15:54:02.283;599616046952162067;3241.8188;-338
2023-04-13T15:54:02.291;599616046959844102;3249.501;-333
2023-04-13T15:54:02.299;599616046967526137;3257.1829;-338
2023-04-13T15:54:02.306;599616046975208172;3264.865;-340
2023-04-13T15:54:02.314;599616046982890207;3272.547;-321
2023-04-13T15:54:02.322;599616046990572242;3280.229;-309
2023-04-13T15:54:02.329;599616046998254277;3287.9111;-319
2023-04-13T15:54:02.337;599616047005936312;3295.5933;-328
2023-04-13T15:54:02.345;599616047013618347;3303.2751;-326
2023-04-13T15:54:02.352;599616047021300382;3310.9573;-319
2023-04-13T15:54:02.360;599616047028982417;3318.6394;-314
2023-04-13T15:54:02.368;599616047036664452;3326.3213;-314
2023-04-13T15:54:02.376;599616047044346487;3334.0034;-311
2023-04-13T15:54:02.383;599616047052028522;3341.6855;-311
2023-04-13T15:54:02.391;599616047059710557;3349.3672;-306
2023-04-13T15:54:02.399;599616047067392592;3357.0493;-299
2023-04-13T15:54:02.406;599616047075094757;3364.7517;-306
2023-04-13T15:54:02.414;599616047082776513;3372.4333;-302
2023-04-13T15:54:02.422;599616047090458269;3380.1152;-299
2023-04-13T15:54:02.429;599616047098140025;3387.7969;-321
2023-04-13T15:54:02.437;599616047105821781;3395.4785;-331
2023-04-13T15:54:02.445;599616047113503537;3403.1604;-306
2023-04-13T15:54:02.452;599616047121185293;3410.842;-294
2023-04-13T15:54:02.460;599616047128867049;3418.524;-302
2023-04-13T15:54:02.468;599616047136548805;3426.2058;-306
2023-04-13T15:54:02.475;599616047144230561;3433.8875;-311
2023-04-13T15:54:02.483;599616047151912317;3441.5693;-314
2023-04-13T15:54:02.491;599616047159594073;3449.2507;-309
2023-04-13T15:54:02.498;599616047167275829;3456.9326;-311
2023-04-13T15:54:02.506;599616047174957585;3464.6145;-319
2023-04-13T15:54:02.514;599616047182639341;3472.2961;-321
2023-04-13T15:54:02.521;599616047190321097;3479.978;-311
2023-04-13T15:54:02.529;599616047198002853;3487.6597;-294
2023-04-13T15:54:02.537;599616047205684609;3495.3416;-282
2023-04-13T15:54:02.545;599616047213366365;3503.0232;-273
2023-04-13T15:54:02.552;599616047221048121;3510.7048;-258
2023-04-13T15:54:02.560;599616047228729877;3518.3867;-253
2023-04-13T15:54:02.568;599616047236411633;3526.0684;-265
2023-04-13T15:54:02.575;599616047244093389;3533.7502;-263
2023-04-13T15:54:02.583;599616047251775145;3541.4321;-251
2023-04-13T15:54:02.591;599616047259456901;3549.1138;-256
2023-04-13T15:54:02.598;599616047267138657;3556.7954;-261
2023-04-13T15:54:02.606;599616047274820413;3564.4773;-251
2023-04-13T15:54:02.614;599616047282502169;3572.159;-248
2023-04-13T15:54:02.621;599616047290183925;3579.8408;-256
2023-04-13T15:54:02.629;599616047297865681;3587.5225;-253
2023-04-13T15:54:02.637;599616047305547437;3595.2043;-248
2023-04-13T15:54:02.644;599616047313229193;3602.8862;-251
2023-04-13T15:54:02.652;599616047320910949;3610.5676;-248
2023-04-13T15:54:02.660;599616047328592705;3618.2495;-241
2023-04-13T15:54:02.667;599616047336274461;3625.9312;-232
2023-04-13T15:54:02.675;599616047343956217;3633.613;-229
2023-04-13T15:54:02.683;599616047351637973;3641.295;-236
2023-04-13T15:54:02.690;599616047359319729;3648.9766;-246
2023-04-13T15:54:02.698;599616047367001485;3656.6584;-256
2023-04-13T15:54:02.706;599616047374683241;3664.3403;-263
2023-04-13T15:54:02.714;599616047382364997;3672.0217;-263
2023-04-13T15:54:02.721;599616047390046753;3679.7036;-258
2023-04-13T15:54:02.729;599616047397728509;3687.3853;-258
2023-04-13T15:54:02.737;599616047405410265;3695.0671;-263
2023-04-13T15:54:02.744;599616047413092021;3702.749;-263
2023-04-13T15:54:02.752;599616047420773777;3710.4307;-270
2023-04-13T15:54:02.760;599616047428455533;3718.1125;-275
2023-04-13T15:54:02.767;599616047436137289;3725.794;-270
2023-04-13T15:54:02.775;599616047443819045;3733.4758;-273
2023-04-13T15:54:02.783;599616047451500801;3741.1577;-328
2023-04-13T15:54:02.790;599616047459182557;3748.8394;-435
2023-04-13T15:54:02.798;599616047466864313;3756.5212;-418
2023-04-13T15:54:02.806;599616047474546069;3764.2031;-103
2023-04-13T15:54:02.813;599616047482227825;3771.8848;449
2023-04-13T15:54:02.821;599616047489909581;3779.5664;935
2023-04-13T15:54:02.829;599616047497591337;3787.248;882
2023-04-13T15:54:02.836;599616047505273093;3794.93;193
2023-04-13T15:54:02.844;599616047512954849;3802.6118;-432
2023-04-13T15:54:02.852;599616047520636605;3810.2935;-478
2023-04-13T15:54:02.859;599616047528318361;3817.9753;-333
2023-04-13T15:54:02.867;599616047536000117;3825.657;-355
2023-04-13T15:54:02.875;599616047543681873;3833.3386;-369
2023-04-13T15:54:02.883;599616047551363629;3841.0205;-326
2023-04-13T15:54:02.890;599616047559045385;3848.7021;-333
2023-04-13T15:54:02.898;599616047566727141;3856.384;-343
2023-04-13T15:54:02.906;599616047574408897;3864.0657;-314
2023-04-13T15:54:02.913;599616047582090653;3871.7476;-302
2023-04-13T15:54:02.921;599616047589772409;3879.4294;-309
2023-04-13T15:54:02.929;599616047597454165;3887.1108;-309
2023-04-13T15:54:02.936;599616047605135921;3894.7927;-302
2023-04-13T15:54:02.944;599616047612817677;3902.4746;-294
2023-04-13T15:54:02.952;599616047620499433;3910.1562;-292
2023-04-13T15:54:02.959;599616047628181189;3917.8381;-282
2023-04-13T15:54:02.967;599616047635837878;3925.4949;-273
2023-04-13T15:54:02.975;599616047643519983;3933.1768;-270
2023-04-13T15:54:02.982;599616047651202088;3940.859;-268
2023-04-13T15:54:02.990;599616047658884193;3948.541;-258
2023-04-13T15:54:02.998;599616047666566298;3956.2231;-248
2023-04-13T15:54:03.005;599616047674248403;3963.9053;-239
2023-04-13T15:54:03.013;599616047681930508;3971.5874;-236
2023-04-13T15:54:03.021;599616047689612613;3979.2693;-229
2023-04-13T15:54:03.028;599616047697294718;3986.9517;-217
2023-04-13T15:54:03.036;599616047704976823;3994.6338;-203
2023-04-13T15:54:03.044;599616047712658928;4002.3157;-193
2023-04-13T15:54:03.051;599616047720341033;4009.9978;-198
2023-04-13T15:54:03.059;599616047728023138;4017.68;-210
2023-04-13T15:54:03.067;599616047735705243;4025.362;-217
2023-04-13T15:54:03.075;599616047743387348;4033.0442;-224
2023-04-13T15:54:03.082;599616047751069453;4040.7263;-246
2023-04-13T15:54:03.090;599616047758751558;4048.4082;-263
2023-04-13T15:54:03.098;599616047766433663;4056.0906;-282
2023-04-13T15:54:03.105;599616047774115768;4063.7727;-309
2023-04-13T15:54:03.113;599616047781797873;4071.4548;-331
2023-04-13T15:54:03.121;599616047789479978;4079.1367;-343
2023-04-13T15:54:03.128;599616047797162083;4086.8188;-348
2023-04-13T15:54:03.136;599616047804844188;4094.5012;-345
2023-04-13T15:54:03.144;599616047812526293;4102.183;-343
2023-04-13T15:54:03.151;599616047820208398;4109.865;-343
2023-04-13T15:54:03.159;599616047827890503;4117.5474;-345
2023-04-13T15:54:03.167;599616047835572608;4125.2295;-355
2023-04-13T15:54:03.174;599616047843254713;4132.9116;-360
2023-04-13T15:54:03.182;599616047850936818;4140.5938;-350
2023-04-13T15:54:03.190;599616047858618923;4148.276;-340
2023-04-13T15:54:03.197;599616047866301028;4155.9575;-340
2023-04-13T15:54:03.205;599616047873983133;4163.64;-340
2023-04-13T15:54:03.213;599616047881665238;4171.3223;-340
2023-04-13T15:54:03.221;599616047889347343;4179.0044;-338
2023-04-13T15:54:03.228;599616047897029448;4186.686;-331
2023-04-13T15:54:03.236;599616047904711553;4194.3687;-333
2023-04-13T15:54:03.244;599616047912393658;4202.051;-335
2023-04-13T15:54:03.251;599616047920075763;4209.7324;-333
2023-04-13T15:54:03.259;599616047927757868;4217.4146;-331
2023-04-13T15:54:03.267;599616047935439973;4225.0967;-326
2023-04-13T15:54:03.274;599616047943122078;4232.779;-321
2023-04-13T15:54:03.282;599616047950804183;4240.461;-321
2023-04-13T15:54:03.290;599616047958486288;4248.143;-321
2023-04-13T15:54:03.297;599616047966168393;4255.825;-319
2023-04-13T15:54:03.305;599616047973850498;4263.5073;-314
2023-04-13T15:54:03.313;599616047981532603;4271.1895;-309
2023-04-13T15:54:03.320;599616047989214708;4278.8716;-306
2023-04-13T15:54:03.328;599616047996896813;4286.5537;-304
2023-04-13T15:54:03.336;599616048004578918;4294.236;-297
2023-04-13T15:54:03.343;599616048012261023;4301.9175;-299
2023-04-13T15:54:03.351;599616048019943128;4309.5996;-304
2023-04-13T15:54:03.359;599616048027625233;4317.282;-297
2023-04-13T15:54:03.366;599616048035307338;4324.9644;-294
2023-04-13T15:54:03.374;599616048042989443;4332.6465;-299
2023-04-13T15:54:03.382;599616048050671548;4340.3286;-297
2023-04-13T15:54:03.390;599616048058353653;4348.0103;-292
2023-04-13T15:54:03.397;599616048066035758;4355.6924;-287
2023-04-13T15:54:03.405;599616048073717863;4363.3745;-287
2023-04-13T15:54:03.413;599616048081399968;4371.0566;-287
2023-04-13T15:54:03.420;599616048089082073;4378.739;-287
2023-04-13T15:54:03.428;599616048096764178;4386.4214;-290
2023-04-13T15:54:03.436;599616048104446283;4394.1035;-287
2023-04-13T15:54:03.443;599616048112128388;4401.785;-285
2023-04-13T15:54:03.451;599616048119810493;4409.4673;-277
2023-04-13T15:54:03.459;599616048127492598;4417.1494;-268
2023-04-13T15:54:03.466;599616048135174703;4424.8315;-270
2023-04-13T15:54:03.474;599616048142856808;4432.5137;-275
2023-04-13T15:54:03.482;599616048150538913;4440.196;-270
2023-04-13T15:54:03.489;599616048158221018;4447.8774;-270
2023-04-13T15:54:03.497;599616048165903123;4455.56;-268
2023-04-13T15:54:03.505;599616048173585228;4463.242;-265
2023-04-13T15:54:03.512;599616048181267333;4470.9243;-268
2023-04-13T15:54:03.520;599616048188949438;4478.6064;-277
2023-04-13T15:54:03.528;599616048196651647;4486.3086;-270
2023-04-13T15:54:03.535;599616048204333473;4493.99;-261
2023-04-13T15:54:03.543;599616048212015299;4501.672;-263
2023-04-13T15:54:03.551;599616048219697125;4509.354;-268
2023-04-13T15:54:03.559;599616048227378951;4517.036;-253
2023-04-13T15:54:03.566;599616048235060777;4524.718;-219
2023-04-13T15:54:03.574;599616048242742603;4532.3994;-212
2023-04-13T15:54:03.582;599616048250424429;4540.081;-236
2023-04-13T15:54:03.589;599616048258106255;4547.763;-239
2023-04-13T15:54:03.597;599616048265788081;4555.445;-239
2023-04-13T15:54:03.605;599616048273469907;4563.127;-256
2023-04-13T15:54:03.612;599616048281151733;4570.8086;-258
2023-04-13T15:54:03.620;599616048288833559;4578.49;-258
2023-04-13T15:54:03.628;599616048296515385;4586.1724;-268
2023-04-13T15:54:03.635;599616048304197211;4593.854;-268
2023-04-13T15:54:03.643;599616048311879037;4601.536;-261
2023-04-13T15:54:03.651;599616048319560863;4609.218;-258
2023-04-13T15:54:03.658;599616048327242689;4616.8994;-256
2023-04-13T15:54:03.666;599616048334924515;4624.581;-261
2023-04-13T15:54:03.674;599616048342606341;4632.263;-273
2023-04-13T15:54:03.681;599616048350288167;4639.9453;-292
2023-04-13T15:54:03.689;599616048357969993;4647.627;-360
2023-04-13T15:54:03.697;599616048365651819;4655.3086;-430
2023-04-13T15:54:03.704;599616048373333645;4662.99;-311
2023-04-13T15:54:03.712;599616048381015471;4670.6724;94
2023-04-13T15:54:03.720;599616048388697297;4678.354;635
2023-04-13T15:54:03.728;599616048396379123;4686.036;947
2023-04-13T15:54:03.735;599616048404060949;4693.718;611
2023-04-13T15:54:03.743;599616048411742775;4701.3994;-145
2023-04-13T15:54:03.751;599616048419424601;4709.0815;-519
2023-04-13T15:54:03.758;599616048427106427;4716.763;-406
2023-04-13T15:54:03.766;599616048434788253;4724.4453;-331
2023-04-13T15:54:03.774;599616048442470079;4732.127;-372
2023-04-13T15:54:03.781;599616048450151905;4739.8086;-343
2023-04-13T15:54:03.789;599616048457833731;4747.4907;-309
2023-04-13T15:54:03.797;599616048465515557;4755.1724;-323
2023-04-13T15:54:03.804;599616048473197383;4762.8545;-316
2023-04-13T15:54:03.812;599616048480879209;4770.536;-304
2023-04-13T15:54:03.820;599616048488561035;4778.218;-302
2023-04-13T15:54:03.827;599616048496242861;4785.8994;-294
2023-04-13T15:54:03.835;599616048503924687;4793.5815;-277
2023-04-13T15:54:03.843;599616048511606513;4801.2637;-277
2023-04-13T15:54:03.850;599616048519288339;4808.9453;-282
2023-04-13T15:54:03.858;599616048526970165;4816.6274;-273
2023-04-13T15:54:03.866;599616048534651991;4824.3086;-256
2023-04-13T15:54:03.873;599616048542333817;4831.9907;-258
2023-04-13T15:54:03.881;599616048550015643;4839.6724;-258
2023-04-13T15:54:03.889;599616048557697469;4847.3545;-239
2023-04-13T15:54:03.897;599616048565379295;4855.036;-219
2023-04-13T15:54:03.904;599616048573061121;4862.718;-212
2023-04-13T15:54:03.912;599616048580742947;4870.4;-205
2023-04-13T15:54:03.920;599616048588424773;4878.0815;-193
2023-04-13T15:54:03.927;599616048596106599;4885.7637;-176
2023-04-13T15:54:03.935;599616048603788425;4893.4453;-169
2023-04-13T15:54:03.943;599616048611470251;4901.127;-174
2023-04-13T15:54:03.950;599616048619152077;4908.8086;-171
2023-04-13T15:54:03.958;599616048626833903;4916.4907;-171
2023-04-13T15:54:03.966;599616048634515729;4924.173;-183
2023-04-13T15:54:03.973;599616048642197555;4931.8545;-188
2023-04-13T15:54:03.981;599616048649879381;4939.5366;-190
2023-04-13T15:54:03.989;599616048657561207;4947.218;-210
2023-04-13T15:54:03.996;599616048665243033;4954.9;-241
2023-04-13T15:54:04.004;599616048672924859;4962.5815;-265
2023-04-13T15:54:04.012;599616048680606685;4970.2637;-287
2023-04-13T15:54:04.019;599616048688288511;4977.946;-304
2023-04-13T15:54:04.027;599616048695970337;4985.627;-311
2023-04-13T15:54:04.035;599616048703652163;4993.309;-306
2023-04-13T15:54:04.042;599616048711333989;5000.9907;-309
2023-04-13T15:54:04.050;599616048719015815;5008.673;-328
2023-04-13T15:54:04.058;599616048726697641;5016.3545;-328
2023-04-13T15:54:04.066;599616048734379467;5024.036;-309
2023-04-13T15:54:04.073;599616048742061293;5031.7183;-304
2023-04-13T15:54:04.081;599616048749743119;5039.4;-311
2023-04-13T15:54:04.089;599616048757409936;5047.0664;-314
2023-04-13T15:54:04.096;599616048765091971;5054.7485;-309
2023-04-13T15:54:04.104;599616048772774006;5062.4307;-287
2023-04-13T15:54:04.112;599616048780456041;5070.113;-270
2023-04-13T15:54:04.119;599616048788138076;5077.795;-287
2023-04-13T15:54:04.127;599616048795820111;5085.477;-311
2023-04-13T15:54:04.135;599616048803502146;5093.1587;-311
2023-04-13T15:54:04.142;599616048811184181;5100.841;-304
2023-04-13T15:54:04.150;599616048818866216;5108.523;-304
2023-04-13T15:54:04.158;599616048826548251;5116.205;-316
2023-04-13T15:54:04.165;599616048834230286;5123.887;-328
2023-04-13T15:54:04.173;599616048841912321;5131.5693;-323
2023-04-13T15:54:04.181;599616048849594356;5139.251;-321
2023-04-13T15:54:04.188;599616048857276391;5146.933;-326
2023-04-13T15:54:04.196;599616048864958426;5154.615;-304
2023-04-13T15:54:04.204;599616048872640461;5162.2974;-287
2023-04-13T15:54:04.211;599616048880322496;5169.9795;-297
2023-04-13T15:54:04.219;599616048888004531;5177.6616;-290
2023-04-13T15:54:04.227;599616048895686566;5185.3433;-292
2023-04-13T15:54:04.235;599616048903368601;5193.0254;-321
2023-04-13T15:54:04.242;599616048911050636;5200.7075;-328
2023-04-13T15:54:04.250;599616048918732671;5208.3896;-314
2023-04-13T15:54:04.258;599616048926414706;5216.072;-294
2023-04-13T15:54:04.265;599616048934096741;5223.754;-287
2023-04-13T15:54:04.273;599616048941778776;5231.4355;-294
2023-04-13T15:54:04.281;599616048949460811;5239.1177;-302
2023-04-13T15:54:04.288;599616048957142846;5246.8;-299
2023-04-13T15:54:04.296;599616048964824881;5254.482;-299
2023-04-13T15:54:04.304;599616048972506916;5262.164;-285
2023-04-13T15:54:04.311;599616048980188951;5269.846;-268
2023-04-13T15:54:04.319;599616048987870986;5277.528;-273
2023-04-13T15:54:04.327;599616048995553021;5285.21;-270
2023-04-13T15:54:04.334;599616049003235056;5292.892;-253
2023-04-13T15:54:04.342;599616049010917091;5300.5737;-258
2023-04-13T15:54:04.350;599616049018599126;5308.256;-270
2023-04-13T15:54:04.357;599616049026281161;5315.938;-270
2023-04-13T15:54:04.365;599616049033963196;5323.6196;-265
2023-04-13T15:54:04.373;599616049041645231;5331.302;-268
2023-04-13T15:54:04.380;599616049049327266;5338.984;-273
2023-04-13T15:54:04.388;599616049057009301;5346.666;-265
2023-04-13T15:54:04.396;599616049064691336;5354.348;-248
2023-04-13T15:54:04.404;599616049072373371;5362.0303;-239
2023-04-13T15:54:04.411;599616049080055406;5369.712;-224
2023-04-13T15:54:04.419;599616049087737441;5377.394;-222
2023-04-13T15:54:04.427;599616049095419476;5385.076;-236
2023-04-13T15:54:04.434;599616049103101511;5392.7583;-239
2023-04-13T15:54:04.442;599616049110783546;5400.4404;-219
2023-04-13T15:54:04.450;599616049118465581;5408.1226;-224
2023-04-13T15:54:04.457;599616049126147616;5415.804;-251
2023-04-13T15:54:04.465;599616049133829651;5423.4863;-263
2023-04-13T15:54:04.473;599616049141511686;5431.1685;-253
2023-04-13T15:54:04.480;599616049149193721;5438.8506;-253
2023-04-13T15:54:04.488;599616049156875756;5446.5327;-270
2023-04-13T15:54:04.496;599616049164557791;5454.215;-277
2023-04-13T15:54:04.503;599616049172239826;5461.8965;-268
2023-04-13T15:54:04.511;599616049179921861;5469.5786;-265
2023-04-13T15:54:04.519;599616049187603896;5477.2607;-273
2023-04-13T15:54:04.526;599616049195285931;5484.943;-309
2023-04-13T15:54:04.534;599616049202967966;5492.625;-393
2023-04-13T15:54:04.542;599616049210650001;5500.307;-432
2023-04-13T15:54:04.549;599616049218332036;5507.989;-210
2023-04-13T15:54:04.557;599616049226014071;5515.671;326
2023-04-13T15:54:04.565;599616049233696106;5523.353;896
2023-04-13T15:54:04.573;599616049241378141;5531.035;1056
2023-04-13T15:54:04.580;599616049249060176;5538.7173;514
2023-04-13T15:54:04.588;599616049256742211;5546.3994;-277
2023-04-13T15:54:04.596;599616049264424246;5554.081;-548
2023-04-13T15:54:04.603;599616049272106281;5561.763;-384
2023-04-13T15:54:04.611;599616049279788316;5569.4453;-326
2023-04-13T15:54:04.619;599616049287470351;5577.1274;-362
2023-04-13T15:54:04.626;599616049295152386;5584.8096;-326
2023-04-13T15:54:04.634;599616049302834421;5592.4917;-304
2023-04-13T15:54:04.642;599616049310516456;5600.1733;-321
2023-04-13T15:54:04.649;599616049318198531;5607.8555;-316
2023-04-13T15:54:04.657;599616049325880566;5615.5376;-294
2023-04-13T15:54:04.665;599616049333562601;5623.2197;-280
2023-04-13T15:54:04.672;599616049341244636;5630.9014;-285
2023-04-13T15:54:04.680;599616049348926671;5638.5835;-297
2023-04-13T15:54:04.688;599616049356608706;5646.265;-299
2023-04-13T15:54:04.695;599616049364290741;5653.9473;-285
2023-04-13T15:54:04.703;599616049371972776;5661.6294;-275
2023-04-13T15:54:04.711;599616049379654811;5669.3115;-285
2023-04-13T15:54:04.718;599616049387336846;5676.9937;-282
2023-04-13T15:54:04.726;599616049395018881;5684.676;-270
2023-04-13T15:54:04.734;599616049402700916;5692.3574;-256
2023-04-13T15:54:04.742;599616049410382951;5700.0396;-239
2023-04-13T15:54:04.749;599616049418064986;5707.7217;-224
2023-04-13T15:54:04.757;599616049425747021;5715.404;-217
2023-04-13T15:54:04.765;599616049433429056;5723.086;-210
2023-04-13T15:54:04.772;599616049441111091;5730.768;-195
2023-04-13T15:54:04.780;599616049448793126;5738.4497;-186
2023-04-13T15:54:04.788;599616049456475161;5746.132;-178
2023-04-13T15:54:04.795;599616049464157196;5753.814;-176
2023-04-13T15:54:04.803;599616049471839231;5761.496;-195
2023-04-13T15:54:04.811;599616049479521266;5769.178;-200
2023-04-13T15:54:04.818;599616049487203301;5776.8604;-198
2023-04-13T15:54:04.826;599616049494885336;5784.542;-224
2023-04-13T15:54:04.834;599616049502567371;5792.224;-261
2023-04-13T15:54:04.841;599616049510249406;5799.9062;-287
2023-04-13T15:54:04.849;599616049517931441;5807.5884;-304
2023-04-13T15:54:04.857;599616049525613476;5815.2705;-314
2023-04-13T15:54:04.864;599616049533295511;5822.9526;-335
2023-04-13T15:54:04.872;599616049540977546;5830.6343;-355
2023-04-13T15:54:04.880;599616049548659581;5838.3164;-348
2023-04-13T15:54:04.887;599616049556341616;5845.9985;-345
2023-04-13T15:54:04.895;599616049564023651;5853.6807;-360
2023-04-13T15:54:04.903;599616049571705686;5861.363;-355
2023-04-13T15:54:04.911;599616049579387721;5869.045;-338
2023-04-13T15:54:04.918;599616049587069756;5876.7266;-338
2023-04-13T15:54:04.926;599616049594751791;5884.4087;-348
2023-04-13T15:54:04.934;599616049602433826;5892.091;-352
2023-04-13T15:54:04.941;599616049610115861;5899.773;-338
2023-04-13T15:54:04.949;599616049617797896;5907.455;-335
2023-04-13T15:54:04.957;599616049625479931;5915.137;-348
2023-04-13T15:54:04.964;599616049633161966;5922.819;-333
2023-04-13T15:54:04.972;599616049640844001;5930.5005;-319
2023-04-13T15:54:04.980;599616049648526036;5938.1826;-321
2023-04-13T15:54:04.987;599616049656208071;5945.8647;-297
2023-04-13T15:54:04.995;599616049663890106;5953.547;-275
2023-04-13T15:54:05.003;599616049671572141;5961.229;-297
2023-04-13T15:54:05.010;599616049679254176;5968.9106;-311
2023-04-13T15:54:05.018;599616049686936211;5976.593;-287
2023-04-13T15:54:05.026;599616049694618246;5984.275;-270
2023-04-13T15:54:05.033;599616049702300281;5991.957;-287
2023-04-13T15:54:05.041;599616049709982316;5999.639;-299
2023-04-13T15:54:05.049;599616049717664351;6007.3213;-292
2023-04-13T15:54:05.057;599616049725346386;6015.003;-290
2023-04-13T15:54:05.064;599616049733028421;6022.685;-294
2023-04-13T15:54:05.072;599616049740710456;6030.367;-290
2023-04-13T15:54:05.080;599616049748392491;6038.0493;-282
2023-04-13T15:54:05.087;599616049756074526;6045.7314;-287
2023-04-13T15:54:05.095;599616049763756561;6053.4136;-294
2023-04-13T15:54:05.103;599616049771438596;6061.095;-285
2023-04-13T15:54:05.110;599616049779120631;6068.7773;-261
2023-04-13T15:54:05.118;599616049786802666;6076.4595;-258
2023-04-13T15:54:05.126;599616049794484701;6084.1416;-277
2023-04-13T15:54:05.133;599616049802166736;6091.8237;-280
2023-04-13T15:54:05.141;599616049809848771;6099.506;-265
2023-04-13T15:54:05.149;599616049817530806;6107.1875;-261
2023-04-13T15:54:05.156;599616049825212841;6114.8696;-258
2023-04-13T15:54:05.164;599616049832894876;6122.552;-248
2023-04-13T15:54:05.172;599616049840576911;6130.234;-246
2023-04-13T15:54:05.179;599616049848258946;6137.916;-268
2023-04-13T15:54:05.187;599616049855940981;6145.598;-275
2023-04-13T15:54:05.195;599616049863623016;6153.28;-263
2023-04-13T15:54:05.202;599616049871305051;6160.962;-263
2023-04-13T15:54:05.210;599616049879012182;6168.669;-275
2023-04-13T15:54:05.218;599616049886693869;6176.3506;-282
2023-04-13T15:54:05.226;599616049894375556;6184.032;-270
2023-04-13T15:54:05.233;599616049902057243;6191.7144;-246
2023-04-13T15:54:05.241;599616049909738930;6199.396;-241
2023-04-13T15:54:05.249;599616049917420617;6207.077;-239
2023-04-13T15:54:05.256;599616049925102304;6214.759;-229
2023-04-13T15:54:05.264;599616049932783991;6222.441;-244
2023-04-13T15:54:05.272;599616049940465678;6230.1226;-261
2023-04-13T15:54:05.279;599616049948147365;6237.804;-239
2023-04-13T15:54:05.287;599616049955829052;6245.486;-234
2023-04-13T15:54:05.295;599616049963510739;6253.1675;-256
2023-04-13T15:54:05.302;599616049971192426;6260.849;-263
2023-04-13T15:54:05.310;599616049978874113;6268.5312;-270
2023-04-13T15:54:05.318;599616049986555800;6276.213;-282
2023-04-13T15:54:05.325;599616049994237487;6283.894;-268
2023-04-13T15:54:05.333;599616050001919174;6291.5757;-251
2023-04-13T15:54:05.341;599616050009600861;6299.258;-253
2023-04-13T15:54:05.348;599616050017282548;6306.9395;-258
2023-04-13T15:54:05.356;599616050024964235;6314.621;-256
2023-04-13T15:54:05.364;599616050032645922;6322.3027;-277
2023-04-13T15:54:05.371;599616050040327609;6329.9844;-369
2023-04-13T15:54:05.379;599616050048009296;6337.666;-451
2023-04-13T15:54:05.387;599616050055690983;6345.348;-299
2023-04-13T15:54:05.395;599616050063372670;6353.03;166
2023-04-13T15:54:05.402;599616050071054357;6360.711;749
2023-04-13T15:54:05.410;599616050078736044;6368.3926;1041
2023-04-13T15:54:05.418;599616050086417731;6376.0747;638
2023-04-13T15:54:05.425;599616050094099418;6383.7563;-169
2023-04-13T15:54:05.433;599616050101781105;6391.438;-546
2023-04-13T15:54:05.441;599616050109462792;6399.1196;-415
2023-04-13T15:54:05.448;599616050117144479;6406.8013;-340
2023-04-13T15:54:05.456;599616050124826166;6414.483;-379
2023-04-13T15:54:05.464;599616050132507853;6422.1646;-352
2023-04-13T15:54:05.471;599616050140189540;6429.8467;-335
2023-04-13T15:54:05.479;599616050147871227;6437.528;-352
2023-04-13T15:54:05.487;599616050155552914;6445.2095;-343
2023-04-13T15:54:05.494;599616050163234601;6452.8916;-331
2023-04-13T15:54:05.502;599616050170916288;6460.573;-340
2023-04-13T15:54:05.510;599616050178597975;6468.255;-338
2023-04-13T15:54:05.517;599616050186279662;6475.937;-314
2023-04-13T15:54:05.525;599616050193961349;6483.618;-306
2023-04-13T15:54:05.533;599616050201643036;6491.3;-314
2023-04-13T15:54:05.540;599616050209324723;6498.9814;-311
2023-04-13T15:54:05.548;599616050217006410;6506.6636;-294
2023-04-13T15:54:05.556;599616050224688097;6514.3447;-292
2023-04-13T15:54:05.564;599616050232369784;6522.0264;-299
2023-04-13T15:54:05.571;599616050240051471;6529.7085;-299
2023-04-13T15:54:05.579;599616050247733158;6537.39;-294
2023-04-13T15:54:05.587;599616050255414845;6545.072;-290
2023-04-13T15:54:05.594;599616050263096532;6552.753;-268
2023-04-13T15:54:05.602;599616050270778219;6560.435;-251
2023-04-13T15:54:05.610;599616050278459906;6568.1167;-248
2023-04-13T15:54:05.617;599616050286141593;6575.7983;-241
2023-04-13T15:54:05.625;599616050293823280;6583.4805;-241
2023-04-13T15:54:05.633;599616050301504967;6591.1616;-248
2023-04-13T15:54:05.640;599616050309186654;6598.8433;-239
2023-04-13T15:54:05.648;599616050316868341;6606.5254;-232
2023-04-13T15:54:05.656;599616050324550028;6614.207;-241
2023-04-13T15:54:05.663;599616050332231715;6621.8887;-258
2023-04-13T15:54:05.671;599616050339913402;6629.57;-285
2023-04-13T15:54:05.679;599616050347595089;6637.252;-321
2023-04-13T15:54:05.686;599616050355276776;6644.9336;-348
2023-04-13T15:54:05.694;599616050362958463;6652.615;-355
2023-04-13T15:54:05.702;599616050370640150;6660.2974;-364
2023-04-13T15:54:05.709;599616050378321837;6667.9785;-379
2023-04-13T15:54:05.717;599616050386003524;6675.66;-391
2023-04-13T15:54:05.725;599616050393685211;6683.342;-410
2023-04-13T15:54:05.733;599616050401366898;6691.024;-413
2023-04-13T15:54:05.740;599616050409048585;6698.7056;-393
2023-04-13T15:54:05.748;599616050416730272;6706.3867;-389
2023-04-13T15:54:05.756;599616050424411959;6714.069;-403
2023-04-13T15:54:05.763;599616050432093646;6721.7505;-398
2023-04-13T15:54:05.771;599616050439755331;6729.412;-377
2023-04-13T15:54:05.779;599616050447437296;6737.094;-362
2023-04-13T15:54:05.786;599616050455119261;6744.7764;-367
2023-04-13T15:54:05.794;599616050462801226;6752.458;-374
2023-04-13T15:54:05.802;599616050470483191;6760.14;-377
2023-04-13T15:54:05.809;599616050478165156;6767.822;-386
2023-04-13T15:54:05.817;599616050485847121;6775.504;-393
2023-04-13T15:54:05.825;599616050493529086;6783.186;-379
2023-04-13T15:54:05.832;599616050501211051;6790.868;-367
2023-04-13T15:54:05.840;599616050508893016;6798.55;-379
2023-04-13T15:54:05.848;599616050516574981;6806.232;-386
2023-04-13T15:54:05.855;599616050524256946;6813.9136;-374
2023-04-13T15:54:05.863;599616050531938911;6821.5957;-364
2023-04-13T15:54:05.871;599616050539620876;6829.278;-362
2023-04-13T15:54:05.878;599616050547302841;6836.96;-367
2023-04-13T15:54:05.886;599616050554984806;6844.6416;-369
2023-04-13T15:54:05.894;599616050562666771;6852.3237;-355
2023-04-13T15:54:05.902;599616050570348736;6860.0054;-350
2023-04-13T15:54:05.909;599616050578030701;6867.6875;-355
2023-04-13T15:54:05.917;599616050585712666;6875.3696;-360
2023-04-13T15:54:05.925;599616050593394631;6883.052;-352
2023-04-13T15:54:05.932;599616050601076596;6890.7334;-340
2023-04-13T15:54:05.940;599616050608758561;6898.4155;-335
2023-04-13T15:54:05.948;599616050616440526;6906.097;-335
2023-04-13T15:54:05.955;599616050624122491;6913.7793;-338
2023-04-13T15:54:05.963;599616050631804456;6921.4614;-348
2023-04-13T15:54:05.971;599616050639486421;6929.143;-348
2023-04-13T15:54:05.978;599616050647168386;6936.825;-338
2023-04-13T15:54:05.986;599616050654850351;6944.5073;-333
2023-04-13T15:54:05.994;599616050662532316;6952.189;-340
2023-04-13T15:54:06.001;599616050670214281;6959.871;-343
2023-04-13T15:54:06.009;599616050677896246;6967.553;-333
2023-04-13T15:54:06.017;599616050685578211;6975.235;-333
2023-04-13T15:54:06.024;599616050693260176;6982.917;-340
2023-04-13T15:54:06.032;599616050700942141;6990.599;-335
2023-04-13T15:54:06.040;599616050708624106;6998.2812;-328
2023-04-13T15:54:06.047;599616050716306071;7005.963;-328
2023-04-13T15:54:06.055;599616050723988036;7013.645;-323
2023-04-13T15:54:06.063;599616050731670001;7021.3267;-321
2023-04-13T15:54:06.071;599616050739351966;7029.009;-326
2023-04-13T15:54:06.078;599616050747033931;7036.691;-302
2023-04-13T15:54:06.086;599616050754715896;7044.373;-265
2023-04-13T15:54:06.094;599616050762397861;7052.0547;-268
2023-04-13T15:54:06.101;599616050770079826;7059.737;-287
2023-04-13T15:54:06.109;599616050777761791;7067.4185;-292
2023-04-13T15:54:06.117;599616050785443756;7075.1006;-304
2023-04-13T15:54:06.124;599616050793125721;7082.7827;-314
2023-04-13T15:54:06.132;599616050800807686;7090.465;-304
2023-04-13T15:54:06.140;599616050808489651;7098.1465;-297
2023-04-13T15:54:06.147;599616050816171616;7105.828;-306
2023-04-13T15:54:06.155;599616050823853581;7113.5103;-306
2023-04-13T15:54:06.163;599616050831535546;7121.1924;-299
2023-04-13T15:54:06.170;599616050839217511;7128.8745;-302
2023-04-13T15:54:06.178;599616050846899476;7136.5566;-304
2023-04-13T15:54:06.186;599616050854581441;7144.2383;-306
2023-04-13T15:54:06.193;599616050862263406;7151.92;-319
2023-04-13T15:54:06.201;599616050869945371;7159.602;-362
2023-04-13T15:54:06.209;599616050877627336;7167.284;-449
2023-04-13T15:54:06.216;599616050885309301;7174.9663;-461
2023-04-13T15:54:06.224;599616050892991266;7182.6484;-188
2023-04-13T15:54:06.232;599616050900673231;7190.33;348
2023-04-13T15:54:06.240;599616050908355196;7198.0117;816
2023-04-13T15:54:06.247;599616050916037161;7205.694;790
2023-04-13T15:54:06.255;599616050923719126;7213.376;161
2023-04-13T15:54:06.263;599616050931401091;7221.058;-464
2023-04-13T15:54:06.270;599616050939083056;7228.74;-548
2023-04-13T15:54:06.278;599616050946765021;7236.422;-393
2023-04-13T15:54:06.286;599616050954446986;7244.1035;-379
2023-04-13T15:54:06.293;599616050962128951;7251.7856;-393
2023-04-13T15:54:06.301;599616050969810916;7259.468;-357
2023-04-13T15:54:06.309;599616050977492881;7267.15;-357
2023-04-13T15:54:06.316;599616050985174846;7274.832;-362
2023-04-13T15:54:06.324;599616050992856811;7282.514;-333
2023-04-13T15:54:06.332;599616051000533800;7290.191;-323
2023-04-13T15:54:06.339;599616051008215835;7297.873;-333
2023-04-13T15:54:06.347;599616051015897870;7305.555;-323
2023-04-13T15:54:06.355;599616051023579905;7313.237;-311
2023-04-13T15:54:06.362;599616051031261940;7320.919;-306
2023-04-13T15:54:06.370;599616051038943975;7328.601;-292
2023-04-13T15:54:06.378;599616051046626010;7336.2827;-277
2023-04-13T15:54:06.385;599616051054308045;7343.965;-287
2023-04-13T15:54:06.393;599616051061990080;7351.6465;-287
2023-04-13T15:54:06.401;599616051069672115;7359.3286;-265
2023-04-13T15:54:06.409;599616051077354150;7367.0107;-251
2023-04-13T15:54:06.416;599616051085036185;7374.693;-239
2023-04-13T15:54:06.424;599616051092718220;7382.375;-222
2023-04-13T15:54:06.432;599616051100400255;7390.057;-222
2023-04-13T15:54:06.439;599616051108082290;7397.739;-224
2023-04-13T15:54:06.447;599616051115764325;7405.421;-210
2023-04-13T15:54:06.455;599616051123446360;7413.103;-198
2023-04-13T15:54:06.462;599616051131128395;7420.785;-195
2023-04-13T15:54:06.470;599616051138810430;7428.4673;-203
2023-04-13T15:54:06.478;599616051146492465;7436.1494;-210
2023-04-13T15:54:06.485;599616051154174500;7443.831;-207
2023-04-13T15:54:06.493;599616051161856535;7451.513;-207
2023-04-13T15:54:06.501;599616051169538570;7459.1953;-224
2023-04-13T15:54:06.508;599616051177220605;7466.8774;-253
2023-04-13T15:54:06.516;599616051184902640;7474.5596;-270
2023-04-13T15:54:06.524;599616051192584675;7482.2417;-290
2023-04-13T15:54:06.531;599616051200266710;7489.924;-311
2023-04-13T15:54:06.539;599616051207948745;7497.6055;-321
2023-04-13T15:54:06.547;599616051215630780;7505.2876;-326
2023-04-13T15:54:06.554;599616051223312815;7512.9697;-331
2023-04-13T15:54:06.562;599616051230994850;7520.652;-333
2023-04-13T15:54:06.570;599616051238676885;7528.334;-328
2023-04-13T15:54:06.578;599616051246358920;7536.016;-328
2023-04-13T15:54:06.585;599616051254040955;7543.6978;-331
2023-04-13T15:54:06.593;599616051261722990;7551.38;-321
2023-04-13T15:54:06.601;599616051269405025;7559.062;-304
2023-04-13T15:54:06.608;599616051277087060;7566.744;-299
2023-04-13T15:54:06.616;599616051284769095;7574.4263;-304
2023-04-13T15:54:06.624;599616051292451130;7582.1084;-299
2023-04-13T15:54:06.631;599616051300133165;7589.79;-287
2023-04-13T15:54:06.639;599616051307815200;7597.472;-287
2023-04-13T15:54:06.647;599616051315497235;7605.1543;-287
2023-04-13T15:54:06.654;599616051323179270;7612.8364;-282
2023-04-13T15:54:06.662;599616051330861305;7620.5186;-282
2023-04-13T15:54:06.670;599616051338543340;7628.2007;-280
2023-04-13T15:54:06.677;599616051346225375;7635.882;-273
2023-04-13T15:54:06.685;599616051353907410;7643.564;-270
2023-04-13T15:54:06.693;599616051361589445;7651.246;-268
2023-04-13T15:54:06.700;599616051369271480;7658.928;-275
2023-04-13T15:54:06.708;599616051376953515;7666.6104;-292
2023-04-13T15:54:06.716;599616051384635550;7674.292;-294
2023-04-13T15:54:06.723;599616051392317585;7681.974;-277
2023-04-13T15:54:06.731;599616051399999620;7689.6562;-273
2023-04-13T15:54:06.739;599616051407681655;7697.3384;-277
2023-04-13T15:54:06.747;599616051415363690;7705.0205;-270
2023-04-13T15:54:06.754;599616051423045725;7712.7026;-261
2023-04-13T15:54:06.762;599616051430727760;7720.3843;-258
2023-04-13T15:54:06.770;599616051438409795;7728.0664;-256
2023-04-13T15:54:06.777;599616051446091830;7735.7485;-261
2023-04-13T15:54:06.785;599616051453773865;7743.4307;-261
2023-04-13T15:54:06.793;599616051461455900;7751.113;-244
2023-04-13T15:54:06.800;599616051469137935;7758.795;-234
2023-04-13T15:54:06.808;599616051476819970;7766.4766;-236
2023-04-13T15:54:06.816;599616051484502005;7774.1587;-241
2023-04-13T15:54:06.823;599616051492184040;7781.841;-248
2023-04-13T15:54:06.831;599616051499866075;7789.523;-253
2023-04-13T15:54:06.839;599616051507548110;7797.205;-246
2023-04-13T15:54:06.846;599616051515230145;7804.887;-234
2023-04-13T15:54:06.854;599616051522912180;7812.569;-227
2023-04-13T15:54:06.862;599616051530594215;7820.251;-215
2023-04-13T15:54:06.869;599616051538276250;7827.933;-190
2023-04-13T15:54:06.877;599616051545958285;7835.615;-181
2023-04-13T15:54:06.885;599616051553640320;7843.2974;-193
2023-04-13T15:54:06.892;599616051561332403;7850.9893;-198
2023-04-13T15:54:06.900;599616051569014299;7858.671;-195
2023-04-13T15:54:06.908;599616051576696195;7866.353;-200
2023-04-13T15:54:06.916;599616051584378091;7874.035;-205
2023-04-13T15:54:06.923;599616051592059987;7881.717;-217
2023-04-13T15:54:06.931;599616051599741883;7889.399;-227
2023-04-13T15:54:06.939;599616051607423779;7897.081;-219
2023-04-13T15:54:06.946;599616051615105675;7904.762;-212
2023-04-13T15:54:06.954;599616051622787571;7912.4443;-219
2023-04-13T15:54:06.962;599616051630469467;7920.1265;-234
2023-04-13T15:54:06.969;599616051638151363;7927.808;-239
2023-04-13T15:54:06.977;599616051645833259;7935.49;-256
2023-04-13T15:54:06.985;599616051653515155;7943.172;-333
2023-04-13T15:54:06.992;599616051661197051;7950.854;-403
2023-04-13T15:54:07.000;599616051668878947;7958.5356;-256
2023-04-13T15:54:07.008;599616051676560843;7966.218;200
2023-04-13T15:54:07.015;599616051684242739;7973.9;780
2023-04-13T15:54:07.023;599616051691924635;7981.5815;1094
2023-04-13T15:54:07.031;599616051699606531;7989.263;734
2023-04-13T15:54:07.038;599616051707288427;7996.9453;-99
2023-04-13T15:54:07.046;599616051714970323;8004.627;-548
2023-04-13T15:54:07.054;599616051722652219;8012.309;-418
2023-04-13T15:54:07.061;599616051730334115;8019.991;-304
2023-04-13T15:54:07.069;599616051738016011;8027.673;-345
2023-04-13T15:54:07.077;599616051745697907;8035.3545;-309
2023-04-13T15:54:07.085;599616051753379803;8043.0366;-270
2023-04-13T15:54:07.092;599616051761061699;8050.7188;-290
2023-04-13T15:54:07.100;599616051768743595;8058.4004;-287
2023-04-13T15:54:07.108;599616051776425491;8066.0825;-263
2023-04-13T15:54:07.115;599616051784107387;8073.764;-256
2023-04-13T15:54:07.123;599616051791789283;8081.446;-248
2023-04-13T15:54:07.131;599616051799471179;8089.128;-246
2023-04-13T15:54:07.138;599616051807153075;8096.81;-248
2023-04-13T15:54:07.146;599616051814834971;8104.492;-239
2023-04-13T15:54:07.154;599616051822516867;8112.1733;-222
2023-04-13T15:54:07.161;599616051830198763;8119.8555;-219
2023-04-13T15:54:07.169;599616051837880659;8127.5376;-219
2023-04-13T15:54:07.177;599616051845562555;8135.219;-207
2023-04-13T15:54:07.184;599616051853244451;8142.9014;-186
2023-04-13T15:54:07.192;599616051860926347;8150.5835;-171
2023-04-13T15:54:07.200;599616051868608243;8158.265;-171
2023-04-13T15:54:07.207;599616051876290139;8165.947;-176
2023-04-13T15:54:07.215;599616051883972035;8173.629;-161
2023-04-13T15:54:07.223;599616051891653931;8181.311;-132
2023-04-13T15:54:07.230;599616051899335827;8188.9927;-118
2023-04-13T15:54:07.238;599616051907017723;8196.675;-113
2023-04-13T15:54:07.246;599616051914699619;8204.356;-113
2023-04-13T15:54:07.254;599616051922381515;8212.038;-118
2023-04-13T15:54:07.261;599616051930063411;8219.72;-128
2023-04-13T15:54:07.269;599616051937745307;8227.402;-132
2023-04-13T15:54:07.277;599616051945427203;8235.084;-147
2023-04-13T15:54:07.284;599616051953109099;8242.766;-181
2023-04-13T15:54:07.292;599616051960790995;8250.448;-210
2023-04-13T15:54:07.300;599616051968472891;8258.13;-229
2023-04-13T15:54:07.307;599616051976154787;8265.812;-253
2023-04-13T15:54:07.315;599616051983836683;8273.493;-280
2023-04-13T15:54:07.323;599616051991518579;8281.176;-290
2023-04-13T15:54:07.330;599616051999200475;8288.857;-299
2023-04-13T15:54:07.338;599616052006882371;8296.539;-306
2023-04-13T15:54:07.346;599616052014564267;8304.221;-304
2023-04-13T15:54:07.353;599616052022246163;8311.903;-304
2023-04-13T15:54:07.361;599616052029928059;8319.585;-309
2023-04-13T15:54:07.369;599616052037609955;8327.267;-306
2023-04-13T15:54:07.376;599616052045291851;8334.949;-306
2023-04-13T15:54:07.384;599616052052973747;8342.631;-304
2023-04-13T15:54:07.392;599616052060655643;8350.3125;-292
2023-04-13T15:54:07.399;599616052068337539;8357.994;-285
2023-04-13T15:54:07.407;599616052076019435;8365.677;-297
2023-04-13T15:54:07.415;599616052083701331;8373.358;-297
2023-04-13T15:54:07.423;599616052091383227;8381.04;-280
2023-04-13T15:54:07.430;599616052099065123;8388.723;-265
2023-04-13T15:54:07.438;599616052106747019;8396.403;-265
2023-04-13T15:54:07.446;599616052114428915;8404.086;-277
2023-04-13T15:54:07.453;599616052122120904;8411.777;-275
2023-04-13T15:54:07.461;599616052129802660;8419.46;-258
2023-04-13T15:54:07.469;599616052137484416;8427.142;-261
2023-04-13T15:54:07.476;599616052145166172;8434.823;-275
2023-04-13T15:54:07.484;599616052152847928;8442.505;-268
2023-04-13T15:54:07.492;599616052160529684;8450.187;-256
2023-04-13T15:54:07.499;599616052168211440;8457.868;-265
2023-04-13T15:54:07.507;599616052175893196;8465.55;-275
2023-04-13T15:54:07.515;599616052183574952;8473.231;-273
2023-04-13T15:54:07.522;599616052191256708;8480.913;-258
2023-04-13T15:54:07.530;599616052198938464;8488.596;-246
2023-04-13T15:54:07.538;599616052206620220;8496.277;-253
2023-04-13T15:54:07.545;599616052214301976;8503.959;-263
2023-04-13T15:54:07.553;599616052221983732;8511.641;-256
2023-04-13T15:54:07.561;599616052229665488;8519.322;-248
2023-04-13T15:54:07.569;599616052237347244;8527.004;-251
2023-04-13T15:54:07.576;599616052245029000;8534.686;-253
2023-04-13T15:54:07.584;599616052252710756;8542.368;-246
2023-04-13T15:54:07.592;599616052260392512;8550.049;-229
2023-04-13T15:54:07.599;599616052268074268;8557.731;-227
2023-04-13T15:54:07.607;599616052275756024;8565.413;-239
2023-04-13T15:54:07.615;599616052283437780;8573.095;-251
2023-04-13T15:54:07.622;599616052291119536;8580.776;-248
2023-04-13T15:54:07.630;599616052298801292;8588.458;-236
2023-04-13T15:54:07.638;599616052306483048;8596.14;-222
2023-04-13T15:54:07.645;599616052314164804;8603.822;-227
2023-04-13T15:54:07.653;599616052321846560;8611.503;-222
2023-04-13T15:54:07.661;599616052329528316;8619.186;-198
2023-04-13T15:54:07.668;599616052337210072;8626.867;-181
2023-04-13T15:54:07.676;599616052344891828;8634.548;-188
2023-04-13T15:54:07.684;599616052352573584;8642.23;-205
2023-04-13T15:54:07.691;599616052360255340;8649.912;-212
2023-04-13T15:54:07.699;599616052367937096;8657.595;-212
2023-04-13T15:54:07.707;599616052375618852;8665.275;-229
2023-04-13T15:54:07.714;599616052383300608;8672.957;-232
2023-04-13T15:54:07.722;599616052390982364;8680.64;-227
2023-04-13T15:54:07.730;599616052398664120;8688.32;-244
2023-04-13T15:54:07.738;599616052406345876;8696.003;-239
2023-04-13T15:54:07.745;599616052414027632;8703.685;-222
2023-04-13T15:54:07.753;599616052421709388;8711.366;-224
2023-04-13T15:54:07.761;599616052429391144;8719.048;-227
2023-04-13T15:54:07.768;599616052437072900;8726.7295;-217
2023-04-13T15:54:07.776;599616052444754656;8734.412;-253
2023-04-13T15:54:07.784;599616052452436412;8742.093;-362
2023-04-13T15:54:07.791;599616052460118168;8749.774;-386
2023-04-13T15:54:07.799;599616052467799924;8757.457;-103
2023-04-13T15:54:07.807;599616052475481680;8765.139;454
2023-04-13T15:54:07.814;599616052483163436;8772.82;1010
2023-04-13T15:54:07.822;599616052490845192;8780.502;1104
2023-04-13T15:54:07.830;599616052498526948;8788.184;473
2023-04-13T15:54:07.837;599616052506208704;8795.865;-311
2023-04-13T15:54:07.845;599616052513890460;8803.547;-495
2023-04-13T15:54:07.853;599616052521572216;8811.2295;-309
2023-04-13T15:54:07.860;599616052529253972;8818.911;-294
2023-04-13T15:54:07.868;599616052536935728;8826.592;-333
2023-04-13T15:54:07.876;599616052544617484;8834.274;-270
2023-04-13T15:54:07.883;599616052552299240;8841.956;-253
2023-04-13T15:54:07.891;599616052559980996;8849.638;-275
2023-04-13T15:54:07.899;599616052567662752;8857.319;-251
2023-04-13T15:54:07.907;599616052575344508;8865.002;-234
2023-04-13T15:54:07.914;599616052583026264;8872.684;-248
2023-04-13T15:54:07.922;599616052590708020;8880.364;-248
2023-04-13T15:54:07.930;599616052598389776;8888.047;-227
2023-04-13T15:54:07.937;599616052606071532;8895.729;-222
2023-04-13T15:54:07.945;599616052613753288;8903.409;-222
2023-04-13T15:54:07.953;599616052621435044;8911.092;-210
2023-04-13T15:54:07.960;599616052629116800;8918.773;-205
2023-04-13T15:54:07.968;599616052636798556;8926.456;-198
2023-04-13T15:54:07.976;599616052644480312;8934.137;-183
2023-04-13T15:54:07.983;599616052652162068;8941.819;-169
2023-04-13T15:54:07.991;599616052659843824;8949.501;-154
2023-04-13T15:54:07.999;599616052667525580;8957.182;-145
2023-04-13T15:54:08.006;599616052675207336;8964.864;-137
2023-04-13T15:54:08.014;599616052682869067;8972.525;-118
2023-04-13T15:54:08.022;599616052690551102;8980.208;-94
2023-04-13T15:54:08.029;599616052698233137;8987.89;-74
2023-04-13T15:54:08.037;599616052705915172;8995.571;-70
2023-04-13T15:54:08.045;599616052713597207;9003.254;-77
2023-04-13T15:54:08.052;599616052721279242;9010.936;-84
2023-04-13T15:54:08.060;599616052728961277;9018.618;-99
2023-04-13T15:54:08.068;599616052736643312;9026.3;-113
2023-04-13T15:54:08.075;599616052744325347;9033.982;-125
2023-04-13T15:54:08.083;599616052752007382;9041.664;-157
2023-04-13T15:54:08.091;599616052759689417;9049.346;-203
2023-04-13T15:54:08.099;599616052767371452;9057.028;-232
2023-04-13T15:54:08.106;599616052775053487;9064.71;-246
2023-04-13T15:54:08.114;599616052782735522;9072.393;-261
2023-04-13T15:54:08.122;599616052790417557;9080.074;-270
2023-04-13T15:54:08.129;599616052798099592;9087.756;-263
2023-04-13T15:54:08.137;599616052805781627;9095.438;-261
2023-04-13T15:54:08.145;599616052813463662;9103.12;-270
2023-04-13T15:54:08.152;599616052821145697;9110.803;-277
2023-04-13T15:54:08.160;599616052828827732;9118.484;-273
2023-04-13T15:54:08.168;599616052836509767;9126.167;-270
2023-04-13T15:54:08.175;599616052844191802;9133.849;-268
2023-04-13T15:54:08.183;599616052851873837;9141.53;-270
2023-04-13T15:54:08.191;599616052859555872;9149.213;-275
2023-04-13T15:54:08.198;599616052867237907;9156.895;-287
2023-04-13T15:54:08.206;599616052874919942;9164.577;-304
2023-04-13T15:54:08.214;599616052882601977;9172.259;-297
2023-04-13T15:54:08.221;599616052890284012;9179.94;-268
2023-04-13T15:54:08.229;599616052897966047;9187.623;-265
2023-04-13T15:54:08.237;599616052905648082;9195.305;-285
2023-04-13T15:54:08.244;599616052913330117;9202.987;-268
2023-04-13T15:54:08.252;599616052921012152;9210.669;-236
2023-04-13T15:54:08.260;599616052928694187;9218.352;-244
2023-04-13T15:54:08.268;599616052936376222;9226.033;-263
2023-04-13T15:54:08.275;599616052944058257;9233.715;-253
2023-04-13T15:54:08.283;599616052951740292;9241.397;-256
2023-04-13T15:54:08.291;599616052959422327;9249.079;-270
2023-04-13T15:54:08.298;599616052967104362;9256.762;-256
2023-04-13T15:54:08.306;599616052974786397;9264.443;-224
2023-04-13T15:54:08.314;599616052982468432;9272.125;-224
2023-04-13T15:54:08.321;599616052990150467;9279.808;-239
2023-04-13T15:54:08.329;599616052997832502;9287.489;-241
2023-04-13T15:54:08.337;599616053005514537;9295.172;-239
2023-04-13T15:54:08.344;599616053013196572;9302.854;-236
2023-04-13T15:54:08.352;599616053020878607;9310.536;-224
2023-04-13T15:54:08.360;599616053028560642;9318.218;-227
2023-04-13T15:54:08.367;599616053036242677;9325.899;-236
2023-04-13T15:54:08.375;599616053043924712;9333.582;-234
2023-04-13T15:54:08.383;599616053051606747;9341.264;-224
2023-04-13T15:54:08.390;599616053059288782;9348.946;-219
2023-04-13T15:54:08.398;599616053066970817;9356.628;-222
2023-04-13T15:54:08.406;599616053074652852;9364.31;-224
2023-04-13T15:54:08.413;599616053082334887;9371.992;-224
2023-04-13T15:54:08.421;599616053090016922;9379.674;-227
2023-04-13T15:54:08.429;599616053097698957;9387.356;-219
2023-04-13T15:54:08.437;599616053105380992;9395.038;-198
2023-04-13T15:54:08.444;599616053113063027;9402.721;-186
2023-04-13T15:54:08.452;599616053120745062;9410.402;-198
2023-04-13T15:54:08.460;599616053128427097;9418.084;-207
2023-04-13T15:54:08.467;599616053136109132;9425.767;-203
2023-04-13T15:54:08.475;599616053143791167;9433.448;-198
2023-04-13T15:54:08.483;599616053151473202;9441.131;-203
2023-04-13T15:54:08.490;599616053159155237;9448.8125;-203
2023-04-13T15:54:08.498;599616053166837272;9456.494;-210
2023-04-13T15:54:08.506;599616053174519307;9464.177;-217
2023-04-13T15:54:08.513;599616053182201342;9471.858;-215
2023-04-13T15:54:08.521;599616053189883377;9479.541;-212
2023-04-13T15:54:08.529;599616053197565412;9487.222;-212
2023-04-13T15:54:08.536;599616053205247447;9494.903;-198
2023-04-13T15:54:08.544;599616053212929482;9502.586;-193
2023-04-13T15:54:08.552;599616053220611517;9510.268;-256
2023-04-13T15:54:08.559;599616053228293552;9517.95;-367
2023-04-13T15:54:08.567;599616053235975587;9525.632;-357
2023-04-13T15:54:08.575;599616053243657662;9533.314;-67
2023-04-13T15:54:08.582;599616053251339697;9540.996;497
2023-04-13T15:54:08.590;599616053259021732;9548.678;1077
2023-04-13T15:54:08.598;599616053266703767;9556.36;1155
2023-04-13T15:54:08.606;599616053274385802;9564.042;478
2023-04-13T15:54:08.613;599616053282067837;9571.725;-323
2023-04-13T15:54:08.621;599616053289749872;9579.406;-495
2023-04-13T15:54:08.629;599616053297431907;9587.089;-302
2023-04-13T15:54:08.636;599616053305113942;9594.7705;-292
2023-04-13T15:54:08.644;599616053312795977;9602.452;-345
2023-04-13T15:54:08.652;599616053320478012;9610.135;-280
2023-04-13T15:54:08.659;599616053328160047;9617.816;-258
2023-04-13T15:54:08.667;599616053335842082;9625.499;-287
2023-04-13T15:54:08.675;599616053343524117;9633.181;-270
2023-04-13T15:54:08.682;599616053351206152;9640.862;-251
2023-04-13T15:54:08.690;599616053358888187;9648.545;-265
2023-04-13T15:54:08.698;599616053366570222;9656.227;-270
2023-04-13T15:54:08.705;599616053374252257;9663.909;-261
2023-04-13T15:54:08.713;599616053381934292;9671.591;-261
2023-04-13T15:54:08.721;599616053389616327;9679.273;-261
2023-04-13T15:54:08.728;599616053397298362;9686.955;-239
2023-04-13T15:54:08.736;599616053404980397;9694.637;-222
2023-04-13T15:54:08.744;599616053412662432;9702.319;-224
2023-04-13T15:54:08.752;599616053420344467;9710.001;-215
2023-04-13T15:54:08.759;599616053428026502;9717.684;-198
2023-04-13T15:54:08.767;599616053435708537;9725.365;-186
2023-04-13T15:54:08.775;599616053443390572;9733.047;-171
2023-04-13T15:54:08.782;599616053451072607;9740.7295;-152
2023-04-13T15:54:08.790;599616053458754642;9748.411;-140
2023-04-13T15:54:08.798;599616053466436677;9756.094;-128
2023-04-13T15:54:08.805;599616053474118712;9763.775;-113
2023-04-13T15:54:08.813;599616053481800747;9771.458;-106
2023-04-13T15:54:08.821;599616053489482782;9779.14;-108
2023-04-13T15:54:08.828;599616053497164817;9786.821;-113
2023-04-13T15:54:08.836;599616053504846852;9794.504;-113
2023-04-13T15:54:08.844;599616053512528887;9802.186;-120
2023-04-13T15:54:08.851;599616053520210922;9809.868;-149
2023-04-13T15:54:08.859;599616053527892957;9817.55;-186
2023-04-13T15:54:08.867;599616053535574992;9825.231;-217
2023-04-13T15:54:08.874;599616053543257027;9832.914;-241
2023-04-13T15:54:08.882;599616053550939062;9840.596;-263
2023-04-13T15:54:08.890;599616053558621097;9848.278;-275
2023-04-13T15:54:08.897;599616053566303132;9855.96;-280
2023-04-13T15:54:08.905;599616053573985167;9863.643;-285
2023-04-13T15:54:08.913;599616053581667202;9871.324;-285
2023-04-13T15:54:08.921;599616053589349237;9879.006;-287
2023-04-13T15:54:08.928;599616053597031272;9886.688;-290
2023-04-13T15:54:08.936;599616053604713307;9894.37;-282
2023-04-13T15:54:08.944;599616053612395342;9902.053;-277
2023-04-13T15:54:08.951;599616053620077377;9909.734;-282
2023-04-13T15:54:08.959;599616053627759412;9917.416;-275
2023-04-13T15:54:08.967;599616053635441447;9925.099;-258
2023-04-13T15:54:08.974;599616053643123482;9932.78;-258
2023-04-13T15:54:08.982;599616053650805517;9940.463;-268
2023-04-13T15:54:08.990;599616053658487552;9948.145;-268
2023-04-13T15:54:08.997;599616053666169587;9955.827;-268
2023-04-13T15:54:09.005;599616053673851622;9963.509;-270
2023-04-13T15:54:09.013;599616053681533657;9971.19;-268
2023-04-13T15:54:09.020;599616053689215692;9978.873;-268
2023-04-13T15:54:09.028;599616053696897727;9986.555;-265
2023-04-13T15:54:09.036;599616053704579762;9994.237;-261
2023-04-13T15:54:09.043;599616053712261797;10001.919;-251
2023-04-13T15:54:09.051;599616053719943832;10009.601;-251
2023-04-13T15:54:09.059;599616053727625867;10017.283;-258
2023-04-13T15:54:09.066;599616053735307902;10024.965;-258
2023-04-13T15:54:09.074;599616053742989937;10032.647;-256
2023-04-13T15:54:09.082;599616053750671972;10040.329;-261
2023-04-13T15:54:09.090;599616053758354007;10048.012;-261
2023-04-13T15:54:09.097;599616053766036042;10055.693;-248
2023-04-13T15:54:09.105;599616053773718077;10063.375;-258
2023-04-13T15:54:09.113;599616053781400112;10071.058;-268
2023-04-13T15:54:09.120;599616053789082147;10078.739;-244
2023-04-13T15:54:09.128;599616053796764182;10086.422;-224
2023-04-13T15:54:09.136;599616053804466347;10094.123;-229
2023-04-13T15:54:09.143;599616053812148103;10101.805;-234
2023-04-13T15:54:09.151;599616053819829859;10109.487;-232
2023-04-13T15:54:09.159;599616053827511615;10117.168;-239
2023-04-13T15:54:09.166;599616053835193371;10124.851;-246
2023-04-13T15:54:09.174;599616053842875127;10132.532;-251
2023-04-13T15:54:09.182;599616053850556883;10140.213;-258
2023-04-13T15:54:09.189;599616053858238639;10147.8955;-251
2023-04-13T15:54:09.197;599616053865920395;10155.577;-239
2023-04-13T15:54:09.205;599616053873602151;10163.26;-241
2023-04-13T15:54:09.212;599616053881283907;10170.94;-256
2023-04-13T15:54:09.220;599616053888965663;10178.622;-265
2023-04-13T15:54:09.228;599616053896647419;10186.305;-265
2023-04-13T15:54:09.235;599616053904329175;10193.985;-261
2023-04-13T15:54:09.243;599616053912010931;10201.668;-256
2023-04-13T15:54:09.251;599616053919692687;10209.35;-246
2023-04-13T15:54:09.259;599616053927374443;10217.031;-232
2023-04-13T15:54:09.266;599616053935056199;10224.713;-217
2023-04-13T15:54:09.274;599616053942737955;10232.395;-203
2023-04-13T15:54:09.282;599616053950419711;10240.077;-198
2023-04-13T15:54:09.289;599616053958101467;10247.758;-203
2023-04-13T15:54:09.297;599616053965783223;10255.439;-212
2023-04-13T15:54:09.305;599616053973464979;10263.122;-219
2023-04-13T15:54:09.312;599616053981146735;10270.804;-222
2023-04-13T15:54:09.320;599616053988828491;10278.485;-219
2023-04-13T15:54:09.328;599616053996510247;10286.167;-222
2023-04-13T15:54:09.335;599616054004192003;10293.849;-222
2023-04-13T15:54:09.343;599616054011873759;10301.53;-217
2023-04-13T15:54:09.351;599616054019555515;10309.212;-212
2023-04-13T15:54:09.358;599616054027237271;10316.895;-215
2023-04-13T15:54:09.366;599616054034919027;10324.576;-219
2023-04-13T15:54:09.374;599616054042600783;10332.257;-215
2023-04-13T15:54:09.381;599616054050282539;10339.939;-241
2023-04-13T15:54:09.389;599616054057964295;10347.621;-343
2023-04-13T15:54:09.397;599616054065646051;10355.303;-391
2023-04-13T15:54:09.404;599616054073327807;10362.984;-164
2023-04-13T15:54:09.412;599616054081009563;10370.666;379
2023-04-13T15:54:09.420;599616054088691319;10378.349;966
2023-04-13T15:54:09.428;599616054096373075;10386.029;1119
2023-04-13T15:54:09.435;599616054104054831;10393.712;553
2023-04-13T15:54:09.443;599616054111736587;10401.394;-241
2023-04-13T15:54:09.451;599616054119418343;10409.074;-495
2023-04-13T15:54:09.458;599616054127100099;10416.757;-309
2023-04-13T15:54:09.466;599616054134781855;10424.438;-261
2023-04-13T15:54:09.474;599616054142463611;10432.121;-319
2023-04-13T15:54:09.481;599616054150145367;10439.802;-285
2023-04-13T15:54:09.489;599616054157827123;10447.484;-263
2023-04-13T15:54:09.497;599616054165508879;10455.166;-277
2023-04-13T15:54:09.504;599616054173190635;10462.848;-261
2023-04-13T15:54:09.512;599616054180872391;10470.529;-251
2023-04-13T15:54:09.520;599616054188554147;10478.211;-261
2023-04-13T15:54:09.527;599616054196235903;10485.894;-251
2023-04-13T15:54:09.535;599616054203917659;10493.574;-234
2023-04-13T15:54:09.543;599616054211599415;10501.256;-232
2023-04-13T15:54:09.550;599616054219281171;10508.938;-227
2023-04-13T15:54:09.558;599616054226962927;10516.62;-215
2023-04-13T15:54:09.566;599616054234644683;10524.302;-212
2023-04-13T15:54:09.573;599616054242326439;10531.983;-210
2023-04-13T15:54:09.581;599616054250008195;10539.665;-203
2023-04-13T15:54:09.589;599616054257689951;10547.347;-190
2023-04-13T15:54:09.597;599616054265371707;10555.028;-181
2023-04-13T15:54:09.604;599616054273053463;10562.711;-166
2023-04-13T15:54:09.612;599616054280735219;10570.393;-149
2023-04-13T15:54:09.620;599616054288416975;10578.073;-142
2023-04-13T15:54:09.627;599616054296098731;10585.756;-137
2023-04-13T15:54:09.635;599616054303780487;10593.4375;-120
2023-04-13T15:54:09.643;599616054311462243;10601.119;-108
2023-04-13T15:54:09.650;599616054319143999;10608.801;-113
2023-04-13T15:54:09.658;599616054326825755;10616.482;-123
2023-04-13T15:54:09.666;599616054334507511;10624.165;-130
2023-04-13T15:54:09.673;599616054342189267;10631.846;-137
2023-04-13T15:54:09.681;599616054349871023;10639.528;-149
2023-04-13T15:54:09.689;599616054357552779;10647.21;-171
2023-04-13T15:54:09.696;599616054365224516;10654.882;-195
2023-04-13T15:54:09.704;599616054372906412;10662.5625;-217
2023-04-13T15:54:09.712;599616054380588308;10670.245;-239
2023-04-13T15:54:09.719;599616054388270204;10677.927;-265
2023-04-13T15:54:09.727;599616054395952100;10685.609;-285
2023-04-13T15:54:09.735;599616054403633996;10693.291;-282
2023-04-13T15:54:09.742;599616054411315892;10700.973;-277
2023-04-13T15:54:09.750;599616054418997788;10708.655;-285
2023-04-13T15:54:09.758;599616054426679684;10716.336;-294
2023-04-13T15:54:09.766;599616054434361580;10724.019;-297
2023-04-13T15:54:09.773;599616054442043476;10731.7;-290
2023-04-13T15:54:09.781;599616054449725372;10739.382;-282
2023-04-13T15:54:09.789;599616054457407268;10747.064;-287
2023-04-13T15:54:09.796;599616054465089164;10754.746;-290
2023-04-13T15:54:09.804;599616054472771060;10762.429;-285
2023-04-13T15:54:09.812;599616054480452956;10770.109;-277
2023-04-13T15:54:09.819;599616054488134852;10777.791;-275
2023-04-13T15:54:09.827;599616054495816748;10785.474;-275
2023-04-13T15:54:09.835;599616054503498644;10793.155;-277
2023-04-13T15:54:09.842;599616054511180540;10800.838;-280
2023-04-13T15:54:09.850;599616054518862436;10808.52;-282
2023-04-13T15:54:09.858;599616054526544332;10816.201;-280
2023-04-13T15:54:09.865;599616054534226228;10823.883;-273
2023-04-13T15:54:09.873;599616054541908124;10831.564;-270
2023-04-13T15:54:09.881;599616054549590020;10839.247;-273
2023-04-13T15:54:09.888;599616054557271916;10846.929;-273
2023-04-13T15:54:09.896;599616054564953812;10854.611;-273
2023-04-13T15:54:09.904;599616054572635708;10862.293;-277
2023-04-13T15:54:09.911;599616054580317604;10869.974;-277
2023-04-13T15:54:09.919;599616054587999500;10877.656;-268
2023-04-13T15:54:09.927;599616054595681396;10885.338;-261
2023-04-13T15:54:09.935;599616054603363292;10893.0205;-261
2023-04-13T15:54:09.942;599616054611045188;10900.702;-256
2023-04-13T15:54:09.950;599616054618727084;10908.384;-253
2023-04-13T15:54:09.958;599616054626408980;10916.066;-253
2023-04-13T15:54:09.965;599616054634090876;10923.747;-251
2023-04-13T15:54:09.973;599616054641772772;10931.43;-241
2023-04-13T15:54:09.981;599616054649454668;10939.111;-234
2023-04-13T15:54:09.988;599616054657136564;10946.794;-236
2023-04-13T15:54:09.996;599616054664818460;10954.476;-244
2023-04-13T15:54:10.004;599616054672500356;10962.157;-241
2023-04-13T15:54:10.011;599616054680182252;10969.84;-234
2023-04-13T15:54:10.019;599616054687864148;10977.5205;-232
2023-04-13T15:54:10.027;599616054695546044;10985.203;-229
2023-04-13T15:54:10.034;599616054703227940;10992.885;-227
2023-04-13T15:54:10.042;599616054710909836;11000.566;-229
2023-04-13T15:54:10.050;599616054718591732;11008.249;-222
2023-04-13T15:54:10.057;599616054726273628;11015.931;-210
2023-04-13T15:54:10.065;599616054733955524;11023.612;-207
2023-04-13T15:54:10.073;599616054741637420;11031.294;-212
2023-04-13T15:54:10.080;599616054749319316;11038.976;-210
2023-04-13T15:54:10.088;599616054757001212;11046.658;-193
2023-04-13T15:54:10.096;599616054764683108;11054.34;-176
2023-04-13T15:54:10.104;599616054772365004;11062.022;-171
2023-04-13T15:54:10.111;599616054780046900;11069.704;-166
2023-04-13T15:54:10.119;599616054787728796;11077.385;-176
2023-04-13T15:54:10.127;599616054795410692;11085.067;-193
2023-04-13T15:54:10.134;599616054803092588;11092.749;-198
2023-04-13T15:54:10.142;599616054810774484;11100.432;-193
2023-04-13T15:54:10.150;599616054818456380;11108.113;-203
2023-04-13T15:54:10.157;599616054826138276;11115.796;-210
2023-04-13T15:54:10.165;599616054833820172;11123.478;-205
2023-04-13T15:54:10.173;599616054841502068;11131.158;-200
2023-04-13T15:54:10.180;599616054849183964;11138.841;-203
2023-04-13T15:54:10.188;599616054856865860;11146.522;-200
2023-04-13T15:54:10.196;599616054864547756;11154.205;-193
2023-04-13T15:54:10.203;599616054872229652;11161.887;-195
2023-04-13T15:54:10.211;599616054879911548;11169.568;-234
2023-04-13T15:54:10.219;599616054887593444;11177.25;-323
2023-04-13T15:54:10.226;599616054895275340;11184.932;-369
2023-04-13T15:54:10.234;599616054902957236;11192.614;-169
2023-04-13T15:54:10.242;599616054910639132;11200.296;326
2023-04-13T15:54:10.249;599616054918321028;11207.978;855
2023-04-13T15:54:10.257;599616054925992931;11215.649;969
2023-04-13T15:54:10.265;599616054933674966;11223.332;418
2023-04-13T15:54:10.273;599616054941357001;11231.014;-275
2023-04-13T15:54:10.280;599616054949039036;11238.696;-451
2023-04-13T15:54:10.288;599616054956721071;11246.378;-297
2023-04-13T15:54:10.296;599616054964403106;11254.06;-270
2023-04-13T15:54:10.303;599616054972085141;11261.742;-302
2023-04-13T15:54:10.311;599616054979767176;11269.424;-268
2023-04-13T15:54:10.319;599616054987449211;11277.106;-251
2023-04-13T15:54:10.326;599616054995131246;11284.788;-251
2023-04-13T15:54:10.334;599616055002813281;11292.471;-234
2023-04-13T15:54:10.342;599616055010495316;11300.152;-232
2023-04-13T15:54:10.349;599616055018177351;11307.834;-241
2023-04-13T15:54:10.357;599616055025859386;11315.517;-232
2023-04-13T15:54:10.365;599616055033541421;11323.198;-219
2023-04-13T15:54:10.372;599616055041223456;11330.881;-217
2023-04-13T15:54:10.380;599616055048905491;11338.5625;-207
2023-04-13T15:54:10.388;599616055056587526;11346.244;-190
2023-04-13T15:54:10.395;599616055064269561;11353.927;-193
2023-04-13T15:54:10.403;599616055071951596;11361.608;-205
2023-04-13T15:54:10.411;599616055079633631;11369.291;-188
2023-04-13T15:54:10.418;599616055087315666;11376.973;-169
2023-04-13T15:54:10.426;599616055094997701;11384.655;-164
2023-04-13T15:54:10.434;599616055102679736;11392.337;-152
2023-04-13T15:54:10.442;599616055110361771;11400.019;-130
2023-04-13T15:54:10.449;599616055118043806;11407.701;-118
2023-04-13T15:54:10.457;599616055125725841;11415.383;-111
2023-04-13T15:54:10.465;599616055133407876;11423.065;-94
2023-04-13T15:54:10.472;599616055141089911;11430.747;-89
2023-04-13T15:54:10.480;599616055148771946;11438.429;-89
2023-04-13T15:54:10.488;599616055156453981;11446.111;-77
2023-04-13T15:54:10.495;599616055164136016;11453.793;-79
2023-04-13T15:54:10.503;599616055171818051;11461.476;-108
2023-04-13T15:54:10.511;599616055179500086;11469.157;-123
2023-04-13T15:54:10.518;599616055187182121;11476.84;-130
2023-04-13T15:54:10.526;599616055194864156;11484.521;-152
2023-04-13T15:54:10.534;599616055202546191;11492.203;-186
2023-04-13T15:54:10.541;599616055210228226;11499.886;-215
2023-04-13T15:54:10.549;599616055217910261;11507.567;-227
2023-04-13T15:54:10.557;599616055225592296;11515.25;-232
2023-04-13T15:54:10.564;599616055233274331;11522.931;-244
2023-04-13T15:54:10.572;599616055240956366;11530.612;-253
2023-04-13T15:54:10.580;599616055248638401;11538.295;-253
2023-04-13T15:54:10.587;599616055256320436;11545.977;-244
2023-04-13T15:54:10.595;599616055264002471;11553.659;-232
2023-04-13T15:54:10.603;599616055271684506;11561.341;-232
2023-04-13T15:54:10.611;599616055279366541;11569.023;-241
2023-04-13T15:54:10.618;599616055287048576;11576.705;-244
2023-04-13T15:54:10.626;599616055294730611;11584.387;-248
2023-04-13T15:54:10.634;599616055302412646;11592.069;-248
2023-04-13T15:54:10.641;599616055310094681;11599.751;-246
2023-04-13T15:54:10.649;599616055317776716;11607.434;-251
2023-04-13T15:54:10.657;599616055325458751;11615.115;-258
2023-04-13T15:54:10.664;599616055333140786;11622.797;-258
2023-04-13T15:54:10.672;599616055340822821;11630.4795;-246
2023-04-13T15:54:10.680;599616055348504856;11638.161;-241
2023-04-13T15:54:10.687;599616055356186891;11645.844;-244
2023-04-13T15:54:10.695;599616055363868926;11653.525;-239
2023-04-13T15:54:10.703;599616055371550961;11661.208;-227
2023-04-13T15:54:10.710;599616055379232996;11668.89;-232
2023-04-13T15:54:10.718;599616055386915031;11676.571;-244
2023-04-13T15:54:10.726;599616055394597066;11684.254;-241
2023-04-13T15:54:10.733;599616055402279101;11691.936;-234
2023-04-13T15:54:10.741;599616055409961136;11699.618;-232
2023-04-13T15:54:10.749;599616055417643171;11707.3;-239
2023-04-13T15:54:10.756;599616055425325206;11714.981;-236
2023-04-13T15:54:10.764;599616055433007241;11722.664;-222
2023-04-13T15:54:10.772;599616055440689276;11730.346;-215
2023-04-13T15:54:10.780;599616055448371311;11738.028;-227
2023-04-13T15:54:10.787;599616055456053346;11745.71;-227
2023-04-13T15:54:10.795;599616055463735381;11753.393;-222
2023-04-13T15:54:10.803;599616055471417416;11761.074;-227
2023-04-13T15:54:10.810;599616055479099451;11768.756;-222
2023-04-13T15:54:10.818;599616055486781526;11776.438;-207
2023-04-13T15:54:10.826;599616055494463561;11784.12;-212
2023-04-13T15:54:10.833;599616055502145596;11791.803;-219
2023-04-13T15:54:10.841;599616055509827631;11799.484;-219
2023-04-13T15:54:10.849;599616055517509666;11807.166;-215
2023-04-13T15:54:10.856;599616055525191701;11814.849;-200
2023-04-13T15:54:10.864;599616055532873736;11822.53;-183
2023-04-13T15:54:10.872;599616055540555771;11830.213;-169
2023-04-13T15:54:10.879;599616055548237806;11837.895;-164
2023-04-13T15:54:10.887;599616055555919841;11845.577;-166
2023-04-13T15:54:10.895;599616055563601876;11853.259;-171
2023-04-13T15:54:10.902;599616055571283911;11860.94;-181
2023-04-13T15:54:10.910;599616055578965946;11868.623;-190
2023-04-13T15:54:10.918;599616055586647981;11876.305;-205
2023-04-13T15:54:10.925;599616055594330016;11883.987;-205
2023-04-13T15:54:10.933;599616055602012051;11891.669;-203
2023-04-13T15:54:10.941;599616055609694086;11899.351;-207
2023-04-13T15:54:10.949;599616055617376121;11907.033;-203
2023-04-13T15:54:10.956;599616055625058156;11914.715;-203
2023-04-13T15:54:10.964;599616055632740191;11922.397;-207
2023-04-13T15:54:10.972;599616055640422226;11930.079;-205
2023-04-13T15:54:10.979;599616055648104261;11937.762;-205
2023-04-13T15:54:10.987;599616055655786296;11945.443;-217
2023-04-13T15:54:10.995;599616055663468331;11953.125;-290
2023-04-13T15:54:11.002;599616055671150366;11960.808;-374
2023-04-13T15:54:11.010;599616055678832401;11968.489;-229
2023-04-13T15:54:11.018;599616055686514436;11976.172;248
2023-04-13T15:54:11.025;599616055694196471;11983.854;829
2023-04-13T15:54:11.033;599616055701878506;11991.535;1111
2023-04-13T15:54:11.041;599616055709560541;11999.218;722
2023-04-13T15:54:11.048;599616055717242576;12006.899;-106
2023-04-13T15:54:11.056;599616055724924611;12014.582;-507
2023-04-13T15:54:11.064;599616055732606646;12022.264;-350
2023-04-13T15:54:11.071;599616055740288681;12029.946;-261
2023-04-13T15:54:11.079;599616055747970716;12037.628;-311
2023-04-13T15:54:11.087;599616055755652751;12045.31;-258
2023-04-13T15:54:11.094;599616055763334786;12052.992;-212
2023-04-13T15:54:11.102;599616055771016821;12060.674;-244
2023-04-13T15:54:11.110;599616055778698856;12068.356;-244
2023-04-13T15:54:11.118;599616055786380891;12076.038;-219
2023-04-13T15:54:11.125;599616055794062926;12083.72;-215
2023-04-13T15:54:11.133;599616055801744961;12091.402;-205
2023-04-13T15:54:11.141;599616055809426996;12099.084;-203
2023-04-13T15:54:11.148;599616055817109031;12106.767;-198
2023-04-13T15:54:11.156;599616055824791066;12114.448;-181
2023-04-13T15:54:11.164;599616055832473101;12122.131;-178
2023-04-13T15:54:11.171;599616055840155136;12129.8125;-178
2023-04-13T15:54:11.179;599616055847837171;12137.494;-169
2023-04-13T15:54:11.187;599616055855519206;12145.176;-159
2023-04-13T15:54:11.194;599616055863201241;12152.857;-142
2023-04-13T15:54:11.202;599616055870883276;12160.54;-120
2023-04-13T15:54:11.210;599616055878565311;12168.222;-111
2023-04-13T15:54:11.217;599616055886247346;12175.903;-99
2023-04-13T15:54:11.225;599616055893929381;12183.586;-84
2023-04-13T15:54:11.233;599616055901611416;12191.268;-79
2023-04-13T15:54:11.240;599616055909293451;12198.95;-70
2023-04-13T15:54:11.248;599616055916975486;12206.632;-50
2023-04-13T15:54:11.256;599616055924657521;12214.314;-50
2023-04-13T15:54:11.263;599616055932339556;12221.996;-60
2023-04-13T15:54:11.271;599616055940021591;12229.678;-62
2023-04-13T15:54:11.279;599616055947703626;12237.36;-77
2023-04-13T15:54:11.287;599616055955385661;12245.042;-103
2023-04-13T15:54:11.294;599616055963067696;12252.725;-123
2023-04-13T15:54:11.302;599616055970749731;12260.406;-161
2023-04-13T15:54:11.310;599616055978431766;12268.088;-207
2023-04-13T15:54:11.317;599616055986113801;12275.7705;-236
2023-04-13T15:54:11.325;599616055993795836;12283.452;-253
2023-04-13T15:54:11.333;599616056001477871;12291.135;-256
2023-04-13T15:54:11.340;599616056009159906;12298.816;-261
2023-04-13T15:54:11.348;599616056016841941;12306.499;-273
2023-04-13T15:54:11.356;599616056024523976;12314.181;-285
2023-04-13T15:54:11.363;599616056032206011;12321.862;-287
2023-04-13T15:54:11.371;599616056039888046;12329.545;-277
2023-04-13T15:54:11.379;599616056047570121;12337.227;-270
2023-04-13T15:54:11.386;599616056055252156;12344.909;-280
2023-04-13T15:54:11.394;599616056062934191;12352.591;-275
2023-04-13T15:54:11.402;599616056070616226;12360.272;-253
2023-04-13T15:54:11.409;599616056078298261;12367.955;-248
2023-04-13T15:54:11.417;599616056085980296;12375.637;-261
2023-04-13T15:54:11.425;599616056093662331;12383.319;-265
2023-04-13T15:54:11.433;599616056101344366;12391.001;-258
2023-04-13T15:54:11.440;599616056109026401;12398.684;-258
2023-04-13T15:54:11.448;599616056116708436;12406.365;-268
2023-04-13T15:54:11.456;599616056124390471;12414.047;-265
2023-04-13T15:54:11.463;599616056132072506;12421.7295;-261
2023-04-13T15:54:11.471;599616056139754541;12429.411;-253
2023-04-13T15:54:11.479;599616056147436576;12437.094;-244
2023-04-13T15:54:11.486;599616056155118611;12444.775;-241
2023-04-13T15:54:11.494;599616056162800646;12452.457;-251
2023-04-13T15:54:11.502;599616056170482681;12460.14;-261
2023-04-13T15:54:11.509;599616056178164716;12467.821;-244
2023-04-13T15:54:11.517;599616056185846751;12475.504;-234
2023-04-13T15:54:11.525;599616056193528786;12483.186;-244
2023-04-13T15:54:11.532;599616056201210821;12490.868;-244
2023-04-13T15:54:11.540;599616056208892856;12498.55;-234
2023-04-13T15:54:11.548;599616056216574891;12506.231;-239
2023-04-13T15:54:11.555;599616056224256926;12513.914;-248
2023-04-13T15:54:11.563;599616056231938961;12521.596;-244
2023-04-13T15:54:11.571;599616056239620996;12529.278;-239
2023-04-13T15:54:11.578;599616056247303031;12536.96;-246
2023-04-13T15:54:11.586;599616056254985066;12544.642;-241
2023-04-13T15:54:11.594;599616056262667101;12552.324;-234
2023-04-13T15:54:11.602;599616056270349136;12560.006;-232
2023-04-13T15:54:11.609;599616056278031171;12567.688;-207
2023-04-13T15:54:11.617;599616056285713206;12575.37;-178
2023-04-13T15:54:11.625;599616056293395241;12583.053;-181
2023-04-13T15:54:11.632;599616056301077276;12590.734;-200
2023-04-13T15:54:11.640;599616056308759311;12598.416;-210
2023-04-13T15:54:11.648;599616056316441346;12606.099;-207
2023-04-13T15:54:11.655;599616056324123381;12613.78;-207
2023-04-13T15:54:11.663;599616056331805416;12621.463;-224
2023-04-13T15:54:11.671;599616056339487451;12629.145;-236
2023-04-13T15:54:11.678;599616056347169486;12636.826;-222
2023-04-13T15:54:11.686;599616056354851521;12644.509;-210
2023-04-13T15:54:11.694;599616056362533556;12652.19;-222
2023-04-13T15:54:11.701;599616056370215591;12659.873;-229
2023-04-13T15:54:11.709;599616056377897626;12667.555;-212
2023-04-13T15:54:11.717;599616056385579661;12675.237;-205
2023-04-13T15:54:11.724;599616056393261696;12682.919;-239
2023-04-13T15:54:11.732;599616056400943731;12690.601;-340
2023-04-13T15:54:11.740;599616056408625766;12698.283;-418
2023-04-13T15:54:11.747;599616056416307801;12705.965;-224
2023-04-13T15:54:11.755;599616056423989836;12713.647;306
2023-04-13T15:54:11.763;599616056431671871;12721.329;916
2023-04-13T15:54:11.771;599616056439353906;12729.011;1128
2023-04-13T15:54:11.778;599616056447035941;12736.693;592
2023-04-13T15:54:11.786;599616056454717976;12744.375;-248
2023-04-13T15:54:11.794;599616056462400011;12752.058;-536
2023-04-13T15:54:11.801;599616056470082046;12759.739;-348
2023-04-13T15:54:11.809;599616056477764081;12767.422;-299
2023-04-13T15:54:11.817;599616056485446116;12775.103;-343
2023-04-13T15:54:11.824;599616056493128151;12782.784;-273
2023-04-13T15:54:11.832;599616056500810186;12790.467;-246
2023-04-13T15:54:11.840;599616056508492221;12798.148;-285
2023-04-13T15:54:11.847;599616056516174256;12805.831;-268
2023-04-13T15:54:11.855;599616056523856291;12813.513;-229
2023-04-13T15:54:11.863;599616056531538326;12821.194;-234
2023-04-13T15:54:11.870;599616056539220361;12828.877;-241
2023-04-13T15:54:11.878;599616056546902396;12836.559;-232
2023-04-13T15:54:11.886;599616056554584431;12844.241;-232
2023-04-13T15:54:11.893;599616056562266466;12851.923;-227
2023-04-13T15:54:11.901;599616056569948501;12859.605;-205
2023-04-13T15:54:11.909;599616056577630536;12867.287;-193
2023-04-13T15:54:11.916;599616056585312571;12874.969;-193
2023-04-13T15:54:11.924;599616056592994606;12882.651;-186
2023-04-13T15:54:11.932;599616056600676641;12890.333;-166
2023-04-13T15:54:11.940;599616056608383770;12898.041;-149
2023-04-13T15:54:11.947;599616056616065457;12905.722;-137
2023-04-13T15:54:11.955;599616056623747144;12913.404;-130
2023-04-13T15:54:11.963;599616056631428831;12921.086;-125
2023-04-13T15:54:11.970;599616056639110518;12928.767;-111
2023-04-13T15:54:11.978;599616056646792205;12936.449;-91
2023-04-13T15:54:11.986;599616056654473892;12944.131;-77
2023-04-13T15:54:11.993;599616056662155579;12951.8125;-74
2023-04-13T15:54:12.001;599616056669837266;12959.494;-79
2023-04-13T15:54:12.009;599616056677518953;12967.176;-94
2023-04-13T15:54:12.016;599616056685200640;12974.857;-113
2023-04-13T15:54:12.024;599616056692882327;12982.539;-135
2023-04-13T15:54:12.032;599616056700564014;12990.222;-161
2023-04-13T15:54:12.039;599616056708245701;12997.902;-198
2023-04-13T15:54:12.047;599616056715927388;13005.584;-222
2023-04-13T15:54:12.055;599616056723609075;13013.267;-244
2023-04-13T15:54:12.062;599616056731290762;13020.947;-268
2023-04-13T15:54:12.070;599616056738972449;13028.63;-280
2023-04-13T15:54:12.078;599616056746654136;13036.311;-280
2023-04-13T15:54:12.085;599616056754335823;13043.992;-280
2023-04-13T15:54:12.093;599616056762017510;13051.675;-277
2023-04-13T15:54:12.101;599616056769699197;13059.355;-277
2023-04-13T15:54:12.109;599616056777380884;13067.038;-290
2023-04-13T15:54:12.116;599616056785062571;13074.72;-292
2023-04-13T15:54:12.124;599616056792744258;13082.4;-285
2023-04-13T15:54:12.132;599616056800425945;13090.083;-280
2023-04-13T15:54:12.139;599616056808107632;13097.765;-277
2023-04-13T15:54:12.147;599616056815789319;13105.446;-273
2023-04-13T15:54:12.155;599616056823471006;13113.128;-265
2023-04-13T15:54:12.162;599616056831152693;13120.81;-263
2023-04-13T15:54:12.170;599616056838834380;13128.491;-261
2023-04-13T15:54:12.178;599616056846516067;13136.173;-253
2023-04-13T15:54:12.185;599616056854197754;13143.855;-246
2023-04-13T15:54:12.193;599616056861879441;13151.536;-251
2023-04-13T15:54:12.201;599616056869561128;13159.218;-258
2023-04-13T15:54:12.208;599616056877242815;13166.899;-251
2023-04-13T15:54:12.216;599616056884924502;13174.581;-253
2023-04-13T15:54:12.224;599616056892606189;13182.264;-263
2023-04-13T15:54:12.231;599616056900287876;13189.944;-253
2023-04-13T15:54:12.239;599616056907969563;13197.626;-246
2023-04-13T15:54:12.247;599616056915651250;13205.309;-263
2023-04-13T15:54:12.254;599616056923332937;13212.989;-275
2023-04-13T15:54:12.262;599616056931014624;13220.672;-268
2023-04-13T15:54:12.270;599616056938696311;13228.354;-261
2023-04-13T15:54:12.278;599616056946377998;13236.034;-265
2023-04-13T15:54:12.285;599616056954059685;13243.717;-263
2023-04-13T15:54:12.293;599616056961741372;13251.398;-258
2023-04-13T15:54:12.301;599616056969423059;13259.08;-261
2023-04-13T15:54:12.308;599616056977104746;13266.762;-261
2023-04-13T15:54:12.316;599616056984786433;13274.443;-253
2023-04-13T15:54:12.324;599616056992468120;13282.125;-246
2023-04-13T15:54:12.331;599616057000149807;13289.807;-246
2023-04-13T15:54:12.339;599616057007831494;13297.488;-248
2023-04-13T15:54:12.347;599616057015513181;13305.17;-248
2023-04-13T15:54:12.354;599616057023194868;13312.852;-248
2023-04-13T15:54:12.362;599616057030876555;13320.533;-248
2023-04-13T15:54:12.370;599616057038558242;13328.215;-253
2023-04-13T15:54:12.377;599616057046239929;13335.897;-256
2023-04-13T15:54:12.385;599616057053921616;13343.578;-232
2023-04-13T15:54:12.393;599616057061603303;13351.26;-200
2023-04-13T15:54:12.400;599616057069284990;13358.942;-203
2023-04-13T15:54:12.408;599616057076966677;13366.623;-219
2023-04-13T15:54:12.416;599616057084648364;13374.306;-219
2023-04-13T15:54:12.423;599616057092330051;13381.987;-219
2023-04-13T15:54:12.431;599616057100011738;13389.668;-224
2023-04-13T15:54:12.439;599616057107693425;13397.351;-224
2023-04-13T15:54:12.447;599616057115375112;13405.032;-222
2023-04-13T15:54:12.454;599616057123056799;13412.714;-222
2023-04-13T15:54:12.462;599616057130738486;13420.3955;-222
2023-04-13T15:54:12.470;599616057138420173;13428.076;-232
2023-04-13T15:54:12.477;599616057146101860;13435.759;-232
2023-04-13T15:54:12.485;599616057153783547;13443.44;-227
2023-04-13T15:54:12.493;599616057161465234;13451.122;-229
2023-04-13T15:54:12.500;599616057169126921;13458.784;-248
2023-04-13T15:54:12.508;599616057176808886;13466.465;-321
2023-04-13T15:54:12.516;599616057184490851;13474.147;-408
2023-04-13T15:54:12.523;599616057192172816;13481.829;-282
2023-04-13T15:54:12.531;599616057199854781;13489.512;181
2023-04-13T15:54:12.539;599616057207536746;13497.193;804
2023-04-13T15:54:12.546;599616057215218711;13504.876;1174
2023-04-13T15:54:12.554;599616057222900676;13512.558;831
2023-04-13T15:54:12.562;599616057230582641;13520.239;-33
2023-04-13T15:54:12.569;599616057238264606;13527.922;-526
2023-04-13T15:54:12.577;599616057245946571;13535.604;-406
2023-04-13T15:54:12.585;599616057253628536;13543.286;-280
2023-04-13T15:54:12.592;599616057261310501;13550.968;-340
2023-04-13T15:54:12.600;599616057268992466;13558.648;-331
2023-04-13T15:54:12.608;599616057276674431;13566.331;-285
2023-04-13T15:54:12.616;599616057284356396;13574.013;-294
2023-04-13T15:54:12.623;599616057292038361;13581.695;-299
2023-04-13T15:54:12.631;599616057299720326;13589.377;-280
2023-04-13T15:54:12.639;599616057307402291;13597.059;-273
2023-04-13T15:54:12.646;599616057315084256;13604.741;-270
2023-04-13T15:54:12.654;599616057322766221;13612.423;-263
2023-04-13T15:54:12.662;599616057330448186;13620.105;-256
2023-04-13T15:54:12.669;599616057338130151;13627.787;-244
2023-04-13T15:54:12.677;599616057345812116;13635.47;-234
2023-04-13T15:54:12.685;599616057353494081;13643.151;-232
2023-04-13T15:54:12.692;599616057361176046;13650.833;-224
2023-04-13T15:54:12.700;599616057368858011;13658.515;-212
2023-04-13T15:54:12.708;599616057376539976;13666.196;-207
2023-04-13T15:54:12.715;599616057384221941;13673.879;-198
2023-04-13T15:54:12.723;599616057391903906;13681.561;-183
2023-04-13T15:54:12.731;599616057399585871;13689.242;-166
2023-04-13T15:54:12.738;599616057407267836;13696.925;-145
2023-04-13T15:54:12.746;599616057414949801;13704.606;-128
2023-04-13T15:54:12.754;599616057422631766;13712.289;-132
2023-04-13T15:54:12.761;599616057430313731;13719.971;-140
2023-04-13T15:54:12.769;599616057437995696;13727.653;-125
2023-04-13T15:54:12.777;599616057445677661;13735.335;-113
2023-04-13T15:54:12.785;599616057453359626;13743.017;-125
2023-04-13T15:54:12.792;599616057461041591;13750.698;-137
2023-04-13T15:54:12.800;599616057468723556;13758.38;-140
2023-04-13T15:54:12.808;599616057476405521;13766.0625;-161
2023-04-13T15:54:12.815;599616057484087486;13773.744;-198
2023-04-13T15:54:12.823;599616057491769451;13781.426;-222
2023-04-13T15:54:12.831;599616057499451416;13789.108;-241
2023-04-13T15:54:12.838;599616057507133381;13796.79;-261
2023-04-13T15:54:12.846;599616057514815346;13804.473;-268
2023-04-13T15:54:12.854;599616057522497311;13812.154;-268
2023-04-13T15:54:12.861;599616057530179276;13819.836;-277
2023-04-13T15:54:12.869;599616057537861241;13827.519;-287
2023-04-13T15:54:12.877;599616057545543206;13835.2;-282
2023-04-13T15:54:12.884;599616057553225171;13842.882;-275
2023-04-13T15:54:12.892;599616057560907136;13850.563;-275
2023-04-13T15:54:12.900;599616057568589101;13858.246;-268
2023-04-13T15:54:12.907;599616057576271066;13865.928;-261
2023-04-13T15:54:12.915;599616057583953031;13873.609;-261
2023-04-13T15:54:12.923;599616057591634996;13881.292;-261
2023-04-13T15:54:12.930;599616057599316961;13888.974;-258
2023-04-13T15:54:12.938;599616057606998926;13896.656;-258
2023-04-13T15:54:12.946;599616057614680891;13904.338;-261
2023-04-13T15:54:12.954;599616057622362856;13912.02;-258
2023-04-13T15:54:12.961;599616057630044821;13919.702;-263
2023-04-13T15:54:12.969;599616057637726786;13927.384;-261
2023-04-13T15:54:12.977;599616057645408751;13935.066;-256
2023-04-13T15:54:12.984;599616057653090716;13942.747;-258
2023-04-13T15:54:12.992;599616057660772681;13950.429;-258
2023-04-13T15:54:13.000;599616057668454646;13958.111;-248
2023-04-13T15:54:13.007;599616057676136611;13965.793;-246
2023-04-13T15:54:13.015;599616057683818576;13973.476;-246
2023-04-13T15:54:13.023;599616057691500541;13981.157;-244
2023-04-13T15:54:13.030;599616057699182506;13988.84;-241
2023-04-13T15:54:13.038;599616057706864471;13996.521;-244
2023-04-13T15:54:13.046;599616057714546436;14004.203;-246
2023-04-13T15:54:13.053;599616057722228401;14011.886;-244
2023-04-13T15:54:13.061;599616057729905390;14019.5625;-239
2023-04-13T15:54:13.069;599616057737587425;14027.244;-246
2023-04-13T15:54:13.076;599616057745269460;14034.927;-253
2023-04-13T15:54:13.084;599616057752951495;14042.608;-241
2023-04-13T15:54:13.092;599616057760633530;14050.291;-232
2023-04-13T15:54:13.099;599616057768315565;14057.973;-236
2023-04-13T15:54:13.107;599616057775997600;14065.654;-241
2023-04-13T15:54:13.115;599616057783679635;14073.337;-246
2023-04-13T15:54:13.123;599616057791361670;14081.019;-248
2023-04-13T15:54:13.130;599616057799043705;14088.701;-246
2023-04-13T15:54:13.138;599616057806725740;14096.383;-253
2023-04-13T15:54:13.146;599616057814407775;14104.065;-256
2023-04-13T15:54:13.153;599616057822089810;14111.747;-251
2023-04-13T15:54:13.161;599616057829771845;14119.429;-248
2023-04-13T15:54:13.169;599616057837453880;14127.111;-246
2023-04-13T15:54:13.176;599616057845135915;14134.793;-241
2023-04-13T15:54:13.184;599616057852817950;14142.476;-244
2023-04-13T15:54:13.192;599616057860499985;14150.157;-251
2023-04-13T15:54:13.199;599616057868182020;14157.84;-239
2023-04-13T15:54:13.207;599616057875864055;14165.521;-229
2023-04-13T15:54:13.215;599616057883546090;14173.203;-236
2023-04-13T15:54:13.222;599616057891228125;14180.885;-241
2023-04-13T15:54:13.230;599616057898910160;14188.566;-234
2023-04-13T15:54:13.238;599616057906592195;14196.249;-232
2023-04-13T15:54:13.245;599616057914274230;14203.931;-232
2023-04-13T15:54:13.253;599616057921956265;14211.612;-227
2023-04-13T15:54:13.261;599616057929638300;14219.295;-212
2023-04-13T15:54:13.268;599616057937320335;14226.977;-203
2023-04-13T15:54:13.276;599616057945002370;14234.659;-207
2023-04-13T15:54:13.284;599616057952684405;14242.341;-215
2023-04-13T15:54:13.292;599616057960366440;14250.022;-210
2023-04-13T15:54:13.299;599616057968048475;14257.705;-215
2023-04-13T15:54:13.307;599616057975730510;14265.387;-227
2023-04-13T15:54:13.315;599616057983412545;14273.069;-224
2023-04-13T15:54:13.322;599616057991094580;14280.751;-217
2023-04-13T15:54:13.330;599616057998776615;14288.434;-222
2023-04-13T15:54:13.338;599616058006458650;14296.115;-227
2023-04-13T15:54:13.345;599616058014140685;14303.797;-222
2023-04-13T15:54:13.353;599616058021822720;14311.4795;-217
2023-04-13T15:54:13.361;599616058029504755;14319.161;-224
2023-04-13T15:54:13.368;599616058037186790;14326.844;-234
2023-04-13T15:54:13.376;599616058044868825;14334.525;-246
2023-04-13T15:54:13.384;599616058052550860;14342.207;-319
2023-04-13T15:54:13.391;599616058060232895;14349.89;-403
2023-04-13T15:54:13.399;599616058067914930;14357.571;-285
2023-04-13T15:54:13.407;599616058075596965;14365.254;157
2023-04-13T15:54:13.414;599616058083279000;14372.936;768
2023-04-13T15:54:13.422;599616058090961035;14380.618;1145
2023-04-13T15:54:13.430;599616058098643070;14388.3;831
2023-04-13T15:54:13.437;599616058106325105;14395.981;0
2023-04-13T15:54:13.445;599616058114007140;14403.664;-483
2023-04-13T15:54:13.453;599616058121689175;14411.346;-372
2023-04-13T15:54:13.461;599616058129371210;14419.028;-263
2023-04-13T15:54:13.468;599616058137053245;14426.71;-323
2023-04-13T15:54:13.476;599616058144735280;14434.392;-309
2023-04-13T15:54:13.484;599616058152417315;14442.074;-273
2023-04-13T15:54:13.491;599616058160099350;14449.756;-287
2023-04-13T15:54:13.499;599616058167781385;14457.438;-280
2023-04-13T15:54:13.507;599616058175463420;14465.12;-258
2023-04-13T15:54:13.514;599616058183145455;14472.803;-256
2023-04-13T15:54:13.522;599616058190827490;14480.484;-256
2023-04-13T15:54:13.530;599616058198509525;14488.166;-246
2023-04-13T15:54:13.537;599616058206191560;14495.849;-234
2023-04-13T15:54:13.545;599616058213873595;14503.53;-227
2023-04-13T15:54:13.553;599616058221555630;14511.213;-227
2023-04-13T15:54:13.560;599616058229237665;14518.895;-222
2023-04-13T15:54:13.568;599616058236919700;14526.576;-210
2023-04-13T15:54:13.576;599616058244601735;14534.259;-200
2023-04-13T15:54:13.583;599616058252283770;14541.94;-200
2023-04-13T15:54:13.591;599616058259965805;14549.623;-190
2023-04-13T15:54:13.599;599616058267647840;14557.305;-178
2023-04-13T15:54:13.606;599616058275329875;14564.987;-174
2023-04-13T15:54:13.614;599616058283011910;14572.669;-159
2023-04-13T15:54:13.622;599616058290703993;14580.361;-145
2023-04-13T15:54:13.630;599616058298385889;14588.042;-137
2023-04-13T15:54:13.637;599616058306067785;14595.725;-130
2023-04-13T15:54:13.645;599616058313749681;14603.406;-128
2023-04-13T15:54:13.653;599616058321431577;14611.089;-125
2023-04-13T15:54:13.660;599616058329113473;14618.7705;-118
2023-04-13T15:54:13.668;599616058336795369;14626.452;-120
2023-04-13T15:54:13.676;599616058344477265;14634.135;-142
2023-04-13T15:54:13.683;599616058352159161;14641.815;-171
2023-04-13T15:54:13.691;599616058359841057;14649.498;-183
2023-04-13T15:54:13.699;599616058367522953;14657.18;-200
2023-04-13T15:54:13.706;599616058375204849;14664.861;-229
2023-04-13T15:54:13.714;599616058382886745;14672.544;-246
2023-04-13T15:54:13.722;599616058390568641;14680.226;-253
2023-04-13T15:54:13.729;599616058398250537;14687.908;-261
2023-04-13T15:54:13.737;599616058405932433;14695.589;-263
2023-04-13T15:54:13.745;599616058413614329;14703.2705;-261
2023-04-13T15:54:13.752;599616058421296225;14710.953;-258
2023-04-13T15:54:13.760;599616058428978121;14718.635;-258
2023-04-13T15:54:13.768;599616058436660017;14726.317;-275
2023-04-13T15:54:13.775;599616058444341913;14733.999;-282
2023-04-13T15:54:13.783;599616058452023809;14741.681;-268
2023-04-13T15:54:13.791;599616058459705705;14749.362;-263
2023-04-13T15:54:13.799;599616058467387601;14757.044;-273
2023-04-13T15:54:13.806;599616058475069497;14764.727;-268
2023-04-13T15:54:13.814;599616058482751393;14772.408;-253
2023-04-13T15:54:13.822;599616058490433289;14780.091;-258
2023-04-13T15:54:13.829;599616058498115185;14787.772;-258
2023-04-13T15:54:13.837;599616058505797081;14795.453;-248
2023-04-13T15:54:13.845;599616058513478977;14803.136;-248
2023-04-13T15:54:13.852;599616058521160873;14810.817;-265
2023-04-13T15:54:13.860;599616058528842769;14818.5;-273
2023-04-13T15:54:13.868;599616058536524665;14826.182;-268
2023-04-13T15:54:13.875;599616058544206561;14833.863;-268
2023-04-13T15:54:13.883;599616058551888457;14841.546;-270
2023-04-13T15:54:13.891;599616058559570353;14849.227;-261
2023-04-13T15:54:13.898;599616058567252249;14856.909;-256
2023-04-13T15:54:13.906;599616058574934145;14864.591;-263
2023-04-13T15:54:13.914;599616058582616041;14872.272;-261
2023-04-13T15:54:13.921;599616058590297937;14879.955;-248
2023-04-13T15:54:13.929;599616058597979833;14887.637;-244
2023-04-13T15:54:13.937;599616058605661729;14895.319;-244
2023-04-13T15:54:13.945;599616058613343625;14903.0;-246
2023-04-13T15:54:13.952;599616058621025521;14910.682;-246
2023-04-13T15:54:13.960;599616058628707417;14918.364;-241
2023-04-13T15:54:13.968;599616058636389313;14926.046;-234
2023-04-13T15:54:13.975;599616058644071209;14933.729;-239
2023-04-13T15:54:13.983;599616058651753105;14941.41;-236
2023-04-13T15:54:13.991;599616058659435001;14949.093;-227
2023-04-13T15:54:13.998;599616058667116897;14956.773;-229
2023-04-13T15:54:14.006;599616058674798793;14964.455;-229
2023-04-13T15:54:14.014;599616058682480689;14972.138;-222
2023-04-13T15:54:14.021;599616058690162585;14979.819;-217
2023-04-13T15:54:14.029;599616058697844481;14987.502;-217
2023-04-13T15:54:14.037;599616058705526377;14995.184;-215
2023-04-13T15:54:14.044;599616058713208273;15002.864;-212
2023-04-13T15:54:14.052;599616058720890169;15010.547;-210
2023-04-13T15:54:14.060;599616058728572065;15018.229;-212
2023-04-13T15:54:14.067;599616058736253961;15025.911;-217
2023-04-13T15:54:14.075;599616058743935857;15033.593;-210
2023-04-13T15:54:14.083;599616058751617753;15041.274;-203
2023-04-13T15:54:14.090;599616058759299649;15048.957;-210
2023-04-13T15:54:14.098;599616058766981545;15056.638;-219
2023-04-13T15:54:14.106;599616058774663441;15064.32;-215
2023-04-13T15:54:14.114;599616058782345337;15072.002;-205
2023-04-13T15:54:14.121;599616058790027233;15079.685;-205
2023-04-13T15:54:14.129;599616058797709129;15087.366;-210
2023-04-13T15:54:14.137;599616058805391025;15095.048;-207
2023-04-13T15:54:14.144;599616058813072921;15102.73;-210
2023-04-13T15:54:14.152;599616058820754817;15110.411;-212
2023-04-13T15:54:14.160;599616058828436713;15118.094;-207
2023-04-13T15:54:14.167;599616058836118609;15125.775;-193
2023-04-13T15:54:14.175;599616058843800505;15133.457;-186
2023-04-13T15:54:14.183;599616058851492494;15141.149;-176
2023-04-13T15:54:14.190;599616058859174250;15148.831;-164
2023-04-13T15:54:14.198;599616058866856006;15156.513;-164
2023-04-13T15:54:14.206;599616058874537762;15164.194;-178
2023-04-13T15:54:14.213;599616058882219518;15171.877;-188
2023-04-13T15:54:14.221;599616058889901274;15179.558;-190
2023-04-13T15:54:14.229;599616058897583030;15187.24;-193
2023-04-13T15:54:14.236;599616058905264786;15194.922;-200
2023-04-13T15:54:14.244;599616058912946542;15202.603;-200
2023-04-13T15:54:14.252;599616058920628298;15210.285;-193
2023-04-13T15:54:14.259;599616058928310054;15217.967;-190
2023-04-13T15:54:14.267;599616058935991810;15225.649;-205
2023-04-13T15:54:14.275;599616058943673566;15233.33;-219
2023-04-13T15:54:14.283;599616058951355322;15241.013;-212
2023-04-13T15:54:14.290;599616058959037078;15248.694;-210
2023-04-13T15:54:14.298;599616058966718834;15256.375;-268
2023-04-13T15:54:14.306;599616058974400590;15264.058;-369
2023-04-13T15:54:14.313;599616058982082346;15271.739;-343
2023-04-13T15:54:14.321;599616058989764102;15279.422;-21
2023-04-13T15:54:14.329;599616058997445858;15287.103;526
2023-04-13T15:54:14.336;599616059005127614;15294.784;971
2023-04-13T15:54:14.344;599616059012809370;15302.467;850
2023-04-13T15:54:14.352;599616059020491126;15310.147;147
2023-04-13T15:54:14.359;599616059028172882;15317.83;-413
2023-04-13T15:54:14.367;599616059035854638;15325.512;-415
2023-04-13T15:54:14.375;599616059043536394;15333.193;-280
2023-04-13T15:54:14.382;599616059051218150;15340.875;-297
2023-04-13T15:54:14.390;599616059058899906;15348.557;-306
2023-04-13T15:54:14.398;599616059066581662;15356.239;-273
2023-04-13T15:54:14.405;599616059074263418;15363.92;-277
2023-04-13T15:54:14.413;599616059081945174;15371.602;-285
2023-04-13T15:54:14.421;599616059089626930;15379.284;-261
2023-04-13T15:54:14.428;599616059097308686;15386.966;-251
2023-04-13T15:54:14.436;599616059104990442;15394.647;-251
2023-04-13T15:54:14.444;599616059112672198;15402.329;-244
2023-04-13T15:54:14.452;599616059120353954;15410.011;-236
2023-04-13T15:54:14.459;599616059128035710;15417.692;-232
2023-04-13T15:54:14.467;599616059135717466;15425.374;-217
2023-04-13T15:54:14.475;599616059143399222;15433.057;-212
2023-04-13T15:54:14.482;599616059151080978;15440.738;-217
2023-04-13T15:54:14.490;599616059158762734;15448.419;-212
2023-04-13T15:54:14.498;599616059166444490;15456.102;-200
2023-04-13T15:54:14.505;599616059174126246;15463.783;-190
2023-04-13T15:54:14.513;599616059181808002;15471.465;-183
2023-04-13T15:54:14.521;599616059189489758;15479.146;-169
2023-04-13T15:54:14.528;599616059197171514;15486.828;-152
2023-04-13T15:54:14.536;599616059204853270;15494.511;-147
2023-04-13T15:54:14.544;599616059212535026;15502.191;-145
2023-04-13T15:54:14.551;599616059220216782;15509.874;-132
2023-04-13T15:54:14.559;599616059227898538;15517.556;-118
2023-04-13T15:54:14.567;599616059235580294;15525.236;-116
2023-04-13T15:54:14.574;599616059243262050;15532.919;-125
2023-04-13T15:54:14.582;599616059250943806;15540.601;-132
2023-04-13T15:54:14.590;599616059258625562;15548.283;-135
2023-04-13T15:54:14.597;599616059266307318;15555.964;-152
2023-04-13T15:54:14.605;599616059273989074;15563.6455;-176
2023-04-13T15:54:14.613;599616059281670830;15571.328;-195
2023-04-13T15:54:14.621;599616059289352586;15579.009;-212
2023-04-13T15:54:14.628;599616059297034342;15586.691;-227
2023-04-13T15:54:14.636;599616059304716098;15594.373;-244
2023-04-13T15:54:14.644;599616059312397854;15602.055;-263
2023-04-13T15:54:14.651;599616059320079610;15609.736;-270
2023-04-13T15:54:14.659;599616059327761366;15617.418;-265
2023-04-13T15:54:14.667;599616059335443122;15625.101;-265
2023-04-13T15:54:14.674;599616059343124878;15632.781;-273
2023-04-13T15:54:14.682;599616059350806634;15640.463;-277
2023-04-13T15:54:14.690;599616059358488390;15648.1455;-270
2023-04-13T15:54:14.697;599616059366170146;15655.827;-258
2023-04-13T15:54:14.705;599616059373851902;15663.509;-261
2023-04-13T15:54:14.713;599616059381533658;15671.19;-263
2023-04-13T15:54:14.720;599616059389215414;15678.873;-256
2023-04-13T15:54:14.728;599616059396897170;15686.554;-248
2023-04-13T15:54:14.736;599616059404578926;15694.235;-251
2023-04-13T15:54:14.743;599616059412240657;15701.897;-253
2023-04-13T15:54:14.751;599616059419922692;15709.579;-251
2023-04-13T15:54:14.759;599616059427604727;15717.262;-251
2023-04-13T15:54:14.766;599616059435286762;15724.943;-251
2023-04-13T15:54:14.774;599616059442968797;15732.625;-263
2023-04-13T15:54:14.782;599616059450650832;15740.308;-273
